         Index            Ts             t            HF        Weight            Tr
           [#]          [°C]           [s]          [mW]          [mg]          [°C]
             0  1.26606e+003  0.00000e+000 -5.48242e+002  2.04220e+001  1.27000e+003
             1  1.26621e+003  1.00000e+000 -5.47449e+002  2.04220e+001  1.27033e+003
             2  1.26660e+003  2.00000e+000 -5.47383e+002  2.04220e+001  1.27067e+003
             3  1.26685e+003  3.00000e+000 -5.49095e+002  2.04220e+001  1.27100e+003
             4  1.26713e+003  4.00000e+000 -5.49756e+002  2.04220e+001  1.27133e+003
             5  1.26742e+003  5.00000e+000 -5.49741e+002  2.04220e+001  1.27167e+003
             6  1.26771e+003  6.00000e+000 -5.49601e+002  2.04220e+001  1.27200e+003
             7  1.26802e+003  7.00000e+000 -5.49408e+002  2.04220e+001  1.27233e+003
             8  1.26834e+003  8.00000e+000 -5.49265e+002  2.04220e+001  1.27267e+003
             9  1.26868e+003  9.00000e+000 -5.49146e+002  2.04220e+001  1.27300e+003
            10  1.26900e+003  1.00000e+001 -5.49035e+002  2.04220e+001  1.27333e+003
            11  1.26935e+003  1.10000e+001 -5.48942e+002  2.04220e+001  1.27367e+003
            12  1.26969e+003  1.20000e+001 -5.48841e+002  2.04220e+001  1.27400e+003
            13  1.27003e+003  1.30000e+001 -5.48741e+002  2.04220e+001  1.27433e+003
            14  1.27039e+003  1.40000e+001 -5.48638e+002  2.04221e+001  1.27467e+003
            15  1.27074e+003  1.50000e+001 -5.48543e+002  2.04220e+001  1.27500e+003
            16  1.27110e+003  1.60000e+001 -5.48447e+002  2.04220e+001  1.27533e+003
            17  1.27145e+003  1.70000e+001 -5.48352e+002  2.04220e+001  1.27567e+003
            18  1.27180e+003  1.80000e+001 -5.48254e+002  2.04220e+001  1.27600e+003
            19  1.27215e+003  1.90000e+001 -5.48166e+002  2.04220e+001  1.27633e+003
            20  1.27251e+003  2.00000e+001 -5.48068e+002  2.04220e+001  1.27667e+003
            21  1.27287e+003  2.10000e+001 -5.47969e+002  2.04220e+001  1.27700e+003
            22  1.27321e+003  2.20000e+001 -5.47886e+002  2.04220e+001  1.27733e+003
            23  1.27356e+003  2.30000e+001 -5.47842e+002  2.04220e+001  1.27767e+003
            24  1.27391e+003  2.40000e+001 -5.47797e+002  2.04220e+001  1.27800e+003
            25  1.27426e+003  2.50000e+001 -5.47768e+002  2.04220e+001  1.27833e+003
            26  1.27461e+003  2.60000e+001 -5.47746e+002  2.04219e+001  1.27867e+003
            27  1.27495e+003  2.70000e+001 -5.47737e+002  2.04219e+001  1.27900e+003
            28  1.27530e+003  2.80000e+001 -5.47715e+002  2.04219e+001  1.27933e+003
            29  1.27564e+003  2.90000e+001 -5.47697e+002  2.04219e+001  1.27967e+003
            30  1.27598e+003  3.00000e+001 -5.47670e+002  2.04219e+001  1.28000e+003
            31  1.27633e+003  3.10000e+001 -5.47642e+002  2.04219e+001  1.28033e+003
            32  1.27666e+003  3.20000e+001 -5.47632e+002  2.04219e+001  1.28067e+003
            33  1.27700e+003  3.30000e+001 -5.47619e+002  2.04219e+001  1.28100e+003
            34  1.27733e+003  3.40000e+001 -5.47609e+002  2.04219e+001  1.28133e+003
            35  1.27767e+003  3.50000e+001 -5.47603e+002  2.04220e+001  1.28167e+003
            36  1.27800e+003  3.60000e+001 -5.47612e+002  2.04220e+001  1.28200e+003
            37  1.27834e+003  3.70000e+001 -5.47611e+002  2.04221e+001  1.28233e+003
            38  1.27867e+003  3.80000e+001 -5.47610e+002  2.04221e+001  1.28267e+003
            39  1.27901e+003  3.90000e+001 -5.47611e+002  2.04222e+001  1.28300e+003
            40  1.27934e+003  4.00000e+001 -5.47625e+002  2.04223e+001  1.28333e+003
            41  1.27967e+003  4.10000e+001 -5.47632e+002  2.04224e+001  1.28367e+003
            42  1.28000e+003  4.20000e+001 -5.47628e+002  2.04224e+001  1.28400e+003
            43  1.28033e+003  4.30000e+001 -5.47628e+002  2.04225e+001  1.28433e+003
            44  1.28066e+003  4.40000e+001 -5.47688e+002  2.04225e+001  1.28467e+003
            45  1.28098e+003  4.50000e+001 -5.47716e+002  2.04224e+001  1.28500e+003
            46  1.28131e+003  4.60000e+001 -5.47735e+002  2.04224e+001  1.28533e+003
            47  1.28164e+003  4.70000e+001 -5.47754e+002  2.04224e+001  1.28567e+003
            48  1.28197e+003  4.80000e+001 -5.47783e+002  2.04222e+001  1.28600e+003
            49  1.28230e+003  4.90000e+001 -5.47808e+002  2.04222e+001  1.28633e+003
            50  1.28262e+003  5.00000e+001 -5.47833e+002  2.04221e+001  1.28667e+003
            51  1.28294e+003  5.10000e+001 -5.47858e+002  2.04221e+001  1.28700e+003
            52  1.28327e+003  5.20000e+001 -5.47885e+002  2.04220e+001  1.28733e+003
            53  1.28359e+003  5.30000e+001 -5.47912e+002  2.04220e+001  1.28767e+003
            54  1.28392e+003  5.40000e+001 -5.47938e+002  2.04220e+001  1.28800e+003
            55  1.28424e+003  5.50000e+001 -5.47964e+002  2.04219e+001  1.28833e+003
            56  1.28457e+003  5.60000e+001 -5.47994e+002  2.04219e+001  1.28867e+003
            57  1.28489e+003  5.70000e+001 -5.48020e+002  2.04219e+001  1.28900e+003
            58  1.28522e+003  5.80000e+001 -5.48044e+002  2.04219e+001  1.28933e+003
            59  1.28554e+003  5.90000e+001 -5.48067e+002  2.04219e+001  1.28967e+003
            60  1.28587e+003  6.00000e+001 -5.48088e+002  2.04218e+001  1.29000e+003
            61  1.28619e+003  6.10000e+001 -5.48108e+002  2.04218e+001  1.29033e+003
            62  1.28651e+003  6.20000e+001 -5.48129e+002  2.04217e+001  1.29067e+003
            63  1.28683e+003  6.30000e+001 -5.48149e+002  2.04217e+001  1.29100e+003
            64  1.28716e+003  6.40000e+001 -5.48163e+002  2.04217e+001  1.29133e+003
            65  1.28748e+003  6.50000e+001 -5.48179e+002  2.04217e+001  1.29167e+003
            66  1.28780e+003  6.60000e+001 -5.48194e+002  2.04217e+001  1.29200e+003
            67  1.28812e+003  6.70000e+001 -5.48212e+002  2.04218e+001  1.29233e+003
            68  1.28845e+003  6.80000e+001 -5.48220e+002  2.04219e+001  1.29267e+003
            69  1.28877e+003  6.90000e+001 -5.48232e+002  2.04219e+001  1.29300e+003
            70  1.28909e+003  7.00000e+001 -5.48247e+002  2.04220e+001  1.29333e+003
            71  1.28941e+003  7.10000e+001 -5.48265e+002  2.04221e+001  1.29367e+003
            72  1.28974e+003  7.20000e+001 -5.48286e+002  2.04221e+001  1.29400e+003
            73  1.29005e+003  7.30000e+001 -5.48307e+002  2.04222e+001  1.29433e+003
            74  1.29038e+003  7.40000e+001 -5.48327e+002  2.04222e+001  1.29467e+003
            75  1.29070e+003  7.50000e+001 -5.48348e+002  2.04222e+001  1.29500e+003
            76  1.29102e+003  7.60000e+001 -5.48376e+002  2.04222e+001  1.29533e+003
            77  1.29135e+003  7.70000e+001 -5.48403e+002  2.04222e+001  1.29567e+003
            78  1.29166e+003  7.80000e+001 -5.48426e+002  2.04222e+001  1.29600e+003
            79  1.29199e+003  7.90000e+001 -5.48447e+002  2.04222e+001  1.29633e+003
            80  1.29231e+003  8.00000e+001 -5.48482e+002  2.04222e+001  1.29667e+003
            81  1.29263e+003  8.10000e+001 -5.48510e+002  2.04222e+001  1.29700e+003
            82  1.29295e+003  8.20000e+001 -5.48536e+002  2.04222e+001  1.29733e+003
            83  1.29327e+003  8.30000e+001 -5.48561e+002  2.04222e+001  1.29767e+003
            84  1.29360e+003  8.40000e+001 -5.48586e+002  2.04222e+001  1.29800e+003
            85  1.29392e+003  8.50000e+001 -5.48610e+002  2.04222e+001  1.29833e+003
            86  1.29424e+003  8.60000e+001 -5.48634e+002  2.04222e+001  1.29867e+003
            87  1.29456e+003  8.70000e+001 -5.48659e+002  2.04222e+001  1.29900e+003
            88  1.29488e+003  8.80000e+001 -5.48677e+002  2.04222e+001  1.29933e+003
            89  1.29520e+003  8.90000e+001 -5.48700e+002  2.04222e+001  1.29967e+003
            90  1.29552e+003  9.00000e+001 -5.48727e+002  2.04222e+001  1.30000e+003
            91  1.29584e+003  9.10000e+001 -5.48754e+002  2.04222e+001  1.30033e+003
            92  1.29616e+003  9.20000e+001 -5.48779e+002  2.04221e+001  1.30067e+003
            93  1.29648e+003  9.30000e+001 -5.48805e+002  2.04221e+001  1.30100e+003
            94  1.29680e+003  9.40000e+001 -5.48833e+002  2.04221e+001  1.30133e+003
            95  1.29712e+003  9.50000e+001 -5.48860e+002  2.04221e+001  1.30167e+003
            96  1.29744e+003  9.60000e+001 -5.48891e+002  2.04221e+001  1.30200e+003
            97  1.29776e+003  9.70000e+001 -5.48919e+002  2.04221e+001  1.30233e+003
            98  1.29809e+003  9.80000e+001 -5.48946e+002  2.04221e+001  1.30267e+003
            99  1.29841e+003  9.90000e+001 -5.48975e+002  2.04221e+001  1.30300e+003
           100  1.29873e+003  1.00000e+002 -5.49005e+002  2.04221e+001  1.30333e+003
           101  1.29905e+003  1.01000e+002 -5.49033e+002  2.04221e+001  1.30367e+003
           102  1.29938e+003  1.02000e+002 -5.49060e+002  2.04221e+001  1.30400e+003
           103  1.29969e+003  1.03000e+002 -5.49086e+002  2.04220e+001  1.30433e+003
           104  1.30001e+003  1.04000e+002 -5.49113e+002  2.04220e+001  1.30467e+003
           105  1.30033e+003  1.05000e+002 -5.49142e+002  2.04220e+001  1.30500e+003
           106  1.30066e+003  1.06000e+002 -5.49169e+002  2.04220e+001  1.30533e+003
           107  1.30098e+003  1.07000e+002 -5.49197e+002  2.04220e+001  1.30567e+003
           108  1.30130e+003  1.08000e+002 -5.49222e+002  2.04220e+001  1.30600e+003
           109  1.30162e+003  1.09000e+002 -5.49249e+002  2.04220e+001  1.30633e+003
           110  1.30194e+003  1.10000e+002 -5.49276e+002  2.04220e+001  1.30667e+003
           111  1.30226e+003  1.11000e+002 -5.49302e+002  2.04220e+001  1.30700e+003
           112  1.30259e+003  1.12000e+002 -5.49333e+002  2.04221e+001  1.30733e+003
           113  1.30291e+003  1.13000e+002 -5.49360e+002  2.04221e+001  1.30767e+003
           114  1.30322e+003  1.14000e+002 -5.49385e+002  2.04222e+001  1.30800e+003
           115  1.30355e+003  1.15000e+002 -5.49411e+002  2.04222e+001  1.30833e+003
           116  1.30387e+003  1.16000e+002 -5.49437e+002  2.04222e+001  1.30867e+003
           117  1.30419e+003  1.17000e+002 -5.49465e+002  2.04223e+001  1.30900e+003
           118  1.30452e+003  1.18000e+002 -5.49493e+002  2.04223e+001  1.30933e+003
           119  1.30483e+003  1.19000e+002 -5.49523e+002  2.04223e+001  1.30967e+003
           120  1.30516e+003  1.20000e+002 -5.49552e+002  2.04223e+001  1.31000e+003
           121  1.30548e+003  1.21000e+002 -5.49578e+002  2.04223e+001  1.31033e+003
           122  1.30580e+003  1.22000e+002 -5.49606e+002  2.04223e+001  1.31067e+003
           123  1.30612e+003  1.23000e+002 -5.49637e+002  2.04224e+001  1.31100e+003
           124  1.30644e+003  1.24000e+002 -5.49667e+002  2.04224e+001  1.31133e+003
           125  1.30676e+003  1.25000e+002 -5.49693e+002  2.04224e+001  1.31167e+003
           126  1.30708e+003  1.26000e+002 -5.49717e+002  2.04224e+001  1.31200e+003
           127  1.30740e+003  1.27000e+002 -5.49740e+002  2.04224e+001  1.31233e+003
           128  1.30773e+003  1.28000e+002 -5.49760e+002  2.04223e+001  1.31267e+003
           129  1.30804e+003  1.29000e+002 -5.49780e+002  2.04223e+001  1.31300e+003
           130  1.30836e+003  1.30000e+002 -5.49802e+002  2.04222e+001  1.31333e+003
           131  1.30869e+003  1.31000e+002 -5.49825e+002  2.04222e+001  1.31367e+003
           132  1.30901e+003  1.32000e+002 -5.49849e+002  2.04222e+001  1.31400e+003
           133  1.30933e+003  1.33000e+002 -5.49860e+002  2.04221e+001  1.31433e+003
           134  1.30965e+003  1.34000e+002 -5.49876e+002  2.04221e+001  1.31467e+003
           135  1.30997e+003  1.35000e+002 -5.49893e+002  2.04221e+001  1.31500e+003
           136  1.31029e+003  1.36000e+002 -5.49912e+002  2.04221e+001  1.31533e+003
           137  1.31062e+003  1.37000e+002 -5.49926e+002  2.04222e+001  1.31567e+003
           138  1.31093e+003  1.38000e+002 -5.49940e+002  2.04222e+001  1.31600e+003
           139  1.31126e+003  1.39000e+002 -5.49957e+002  2.04222e+001  1.31633e+003
           140  1.31158e+003  1.40000e+002 -5.49973e+002  2.04223e+001  1.31667e+003
           141  1.31189e+003  1.41000e+002 -5.49986e+002  2.04223e+001  1.31700e+003
           142  1.31222e+003  1.42000e+002 -5.50000e+002  2.04224e+001  1.31733e+003
           143  1.31254e+003  1.43000e+002 -5.50015e+002  2.04224e+001  1.31767e+003
           144  1.31286e+003  1.44000e+002 -5.50030e+002  2.04224e+001  1.31800e+003
           145  1.31318e+003  1.45000e+002 -5.50046e+002  2.04224e+001  1.31833e+003
           146  1.31350e+003  1.46000e+002 -5.50062e+002  2.04225e+001  1.31867e+003
           147  1.31382e+003  1.47000e+002 -5.50076e+002  2.04225e+001  1.31900e+003
           148  1.31415e+003  1.48000e+002 -5.50091e+002  2.04225e+001  1.31933e+003
           149  1.31447e+003  1.49000e+002 -5.50108e+002  2.04225e+001  1.31967e+003
           150  1.31479e+003  1.50000e+002 -5.50127e+002  2.04226e+001  1.32000e+003
           151  1.31511e+003  1.51000e+002 -5.50145e+002  2.04226e+001  1.32033e+003
           152  1.31543e+003  1.52000e+002 -5.50165e+002  2.04226e+001  1.32067e+003
           153  1.31575e+003  1.53000e+002 -5.50186e+002  2.04226e+001  1.32100e+003
           154  1.31607e+003  1.54000e+002 -5.50208e+002  2.04225e+001  1.32133e+003
           155  1.31639e+003  1.55000e+002 -5.50231e+002  2.04225e+001  1.32167e+003
           156  1.31671e+003  1.56000e+002 -5.50254e+002  2.04225e+001  1.32200e+003
           157  1.31704e+003  1.57000e+002 -5.50285e+002  2.04224e+001  1.32233e+003
           158  1.31736e+003  1.58000e+002 -5.50311e+002  2.04224e+001  1.32267e+003
           159  1.31767e+003  1.59000e+002 -5.50333e+002  2.04224e+001  1.32300e+003
           160  1.31800e+003  1.60000e+002 -5.50356e+002  2.04223e+001  1.32333e+003
           161  1.31832e+003  1.61000e+002 -5.50380e+002  2.04223e+001  1.32367e+003
           162  1.31864e+003  1.62000e+002 -5.50402e+002  2.04222e+001  1.32400e+003
           163  1.31897e+003  1.63000e+002 -5.50423e+002  2.04222e+001  1.32433e+003
           164  1.31929e+003  1.64000e+002 -5.50443e+002  2.04222e+001  1.32467e+003
           165  1.31961e+003  1.65000e+002 -5.50467e+002  2.04221e+001  1.32500e+003
           166  1.31993e+003  1.66000e+002 -5.50489e+002  2.04221e+001  1.32533e+003
           167  1.32025e+003  1.67000e+002 -5.50511e+002  2.04221e+001  1.32567e+003
           168  1.32057e+003  1.68000e+002 -5.50532e+002  2.04221e+001  1.32600e+003
           169  1.32089e+003  1.69000e+002 -5.50549e+002  2.04221e+001  1.32633e+003
           170  1.32121e+003  1.70000e+002 -5.50569e+002  2.04221e+001  1.32667e+003
           171  1.32154e+003  1.71000e+002 -5.50588e+002  2.04221e+001  1.32700e+003
           172  1.32186e+003  1.72000e+002 -5.50606e+002  2.04221e+001  1.32733e+003
           173  1.32218e+003  1.73000e+002 -5.50621e+002  2.04221e+001  1.32767e+003
           174  1.32250e+003  1.74000e+002 -5.50636e+002  2.04221e+001  1.32800e+003
           175  1.32282e+003  1.75000e+002 -5.50650e+002  2.04221e+001  1.32833e+003
           176  1.32314e+003  1.76000e+002 -5.50662e+002  2.04221e+001  1.32867e+003
           177  1.32347e+003  1.77000e+002 -5.50667e+002  2.04221e+001  1.32900e+003
           178  1.32378e+003  1.78000e+002 -5.50680e+002  2.04221e+001  1.32933e+003
           179  1.32411e+003  1.79000e+002 -5.50695e+002  2.04221e+001  1.32967e+003
           180  1.32443e+003  1.80000e+002 -5.50709e+002  2.04221e+001  1.33000e+003
           181  1.32475e+003  1.81000e+002 -5.50716e+002  2.04221e+001  1.33033e+003
           182  1.32507e+003  1.82000e+002 -5.50728e+002  2.04221e+001  1.33067e+003
           183  1.32539e+003  1.83000e+002 -5.50739e+002  2.04222e+001  1.33100e+003
           184  1.32571e+003  1.84000e+002 -5.50749e+002  2.04222e+001  1.33133e+003
           185  1.32604e+003  1.85000e+002 -5.50758e+002  2.04223e+001  1.33167e+003
           186  1.32636e+003  1.86000e+002 -5.50771e+002  2.04223e+001  1.33200e+003
           187  1.32668e+003  1.87000e+002 -5.50784e+002  2.04224e+001  1.33233e+003
           188  1.32700e+003  1.88000e+002 -5.50799e+002  2.04224e+001  1.33267e+003
           189  1.32732e+003  1.89000e+002 -5.50817e+002  2.04225e+001  1.33300e+003
           190  1.32765e+003  1.90000e+002 -5.50833e+002  2.04225e+001  1.33333e+003
           191  1.32796e+003  1.91000e+002 -5.50848e+002  2.04226e+001  1.33367e+003
           192  1.32829e+003  1.92000e+002 -5.50862e+002  2.04226e+001  1.33400e+003
           193  1.32861e+003  1.93000e+002 -5.50873e+002  2.04226e+001  1.33433e+003
           194  1.32893e+003  1.94000e+002 -5.50890e+002  2.04226e+001  1.33467e+003
           195  1.32925e+003  1.95000e+002 -5.50907e+002  2.04226e+001  1.33500e+003
           196  1.32958e+003  1.96000e+002 -5.50924e+002  2.04226e+001  1.33533e+003
           197  1.32989e+003  1.97000e+002 -5.50943e+002  2.04226e+001  1.33567e+003
           198  1.33022e+003  1.98000e+002 -5.50962e+002  2.04226e+001  1.33600e+003
           199  1.33053e+003  1.99000e+002 -5.50978e+002  2.04226e+001  1.33633e+003
           200  1.33086e+003  2.00000e+002 -5.50994e+002  2.04226e+001  1.33667e+003
           201  1.33118e+003  2.01000e+002 -5.51008e+002  2.04226e+001  1.33700e+003
           202  1.33150e+003  2.02000e+002 -5.51018e+002  2.04225e+001  1.33733e+003
           203  1.33182e+003  2.03000e+002 -5.51031e+002  2.04225e+001  1.33767e+003
           204  1.33214e+003  2.04000e+002 -5.51045e+002  2.04225e+001  1.33800e+003
           205  1.33246e+003  2.05000e+002 -5.51060e+002  2.04224e+001  1.33833e+003
           206  1.33278e+003  2.06000e+002 -5.51079e+002  2.04224e+001  1.33867e+003
           207  1.33310e+003  2.07000e+002 -5.51096e+002  2.04224e+001  1.33900e+003
           208  1.33343e+003  2.08000e+002 -5.51114e+002  2.04224e+001  1.33933e+003
           209  1.33375e+003  2.09000e+002 -5.51134e+002  2.04224e+001  1.33967e+003
           210  1.33406e+003  2.10000e+002 -5.51147e+002  2.04224e+001  1.34000e+003
           211  1.33439e+003  2.11000e+002 -5.51160e+002  2.04224e+001  1.34033e+003
           212  1.33471e+003  2.12000e+002 -5.51174e+002  2.04224e+001  1.34067e+003
           213  1.33503e+003  2.13000e+002 -5.51190e+002  2.04224e+001  1.34100e+003
           214  1.33535e+003  2.14000e+002 -5.51220e+002  2.04224e+001  1.34133e+003
           215  1.33567e+003  2.15000e+002 -5.51242e+002  2.04224e+001  1.34167e+003
           216  1.33600e+003  2.16000e+002 -5.51260e+002  2.04224e+001  1.34200e+003
           217  1.33632e+003  2.17000e+002 -5.51279e+002  2.04224e+001  1.34233e+003
           218  1.33664e+003  2.18000e+002 -5.51295e+002  2.04224e+001  1.34267e+003
           219  1.33696e+003  2.19000e+002 -5.51313e+002  2.04224e+001  1.34300e+003
           220  1.33728e+003  2.20000e+002 -5.51332e+002  2.04224e+001  1.34333e+003
           221  1.33760e+003  2.21000e+002 -5.51351e+002  2.04224e+001  1.34367e+003
           222  1.33792e+003  2.22000e+002 -5.51375e+002  2.04224e+001  1.34400e+003
           223  1.33824e+003  2.23000e+002 -5.51398e+002  2.04224e+001  1.34433e+003
           224  1.33856e+003  2.24000e+002 -5.51418e+002  2.04224e+001  1.34467e+003
           225  1.33888e+003  2.25000e+002 -5.51440e+002  2.04224e+001  1.34500e+003
           226  1.33920e+003  2.26000e+002 -5.51460e+002  2.04224e+001  1.34533e+003
           227  1.33952e+003  2.27000e+002 -5.51479e+002  2.04225e+001  1.34567e+003
           228  1.33984e+003  2.28000e+002 -5.51499e+002  2.04225e+001  1.34600e+003
           229  1.34016e+003  2.29000e+002 -5.51517e+002  2.04225e+001  1.34633e+003
