         Index            Ts             t            HF        Weight            Tr
           [#]          [°C]           [s]          [mW]          [mg]          [°C]
             0  1.39844e+003  0.00000e+000 -5.64146e+002  2.04021e+001  1.41000e+003
             1  1.39857e+003  1.00000e+000 -5.62057e+002  2.04022e+001  1.41017e+003
             2  1.39881e+003  2.00000e+000 -5.60723e+002  2.04022e+001  1.41033e+003
             3  1.39897e+003  3.00000e+000 -5.61600e+002  2.04022e+001  1.41050e+003
             4  1.39916e+003  4.00000e+000 -5.61854e+002  2.04022e+001  1.41067e+003
             5  1.39934e+003  5.00000e+000 -5.61909e+002  2.04023e+001  1.41083e+003
             6  1.39954e+003  6.00000e+000 -5.61791e+002  2.04023e+001  1.41100e+003
             7  1.39974e+003  7.00000e+000 -5.61670e+002  2.04023e+001  1.41117e+003
             8  1.39994e+003  8.00000e+000 -5.61558e+002  2.04023e+001  1.41133e+003
             9  1.40015e+003  9.00000e+000 -5.61440e+002  2.04024e+001  1.41150e+003
            10  1.40035e+003  1.00000e+001 -5.61332e+002  2.04024e+001  1.41167e+003
            11  1.40057e+003  1.10000e+001 -5.61130e+002  2.04025e+001  1.41183e+003
            12  1.40078e+003  1.20000e+001 -5.60987e+002  2.04025e+001  1.41200e+003
            13  1.40099e+003  1.30000e+001 -5.60823e+002  2.04026e+001  1.41217e+003
            14  1.40120e+003  1.40000e+001 -5.60595e+002  2.04026e+001  1.41233e+003
            15  1.40140e+003  1.50000e+001 -5.60560e+002  2.04027e+001  1.41250e+003
            16  1.40162e+003  1.60000e+001 -5.60452e+002  2.04028e+001  1.41267e+003
            17  1.40182e+003  1.70000e+001 -5.60340e+002  2.04028e+001  1.41283e+003
            18  1.40203e+003  1.80000e+001 -5.60220e+002  2.04029e+001  1.41300e+003
            19  1.40223e+003  1.90000e+001 -5.60137e+002  2.04030e+001  1.41317e+003
            20  1.40244e+003  2.00000e+001 -5.60025e+002  2.04030e+001  1.41333e+003
            21  1.40264e+003  2.10000e+001 -5.59953e+002  2.04031e+001  1.41350e+003
            22  1.40283e+003  2.20000e+001 -5.59955e+002  2.04031e+001  1.41367e+003
            23  1.40303e+003  2.30000e+001 -5.59980e+002  2.04031e+001  1.41383e+003
            24  1.40323e+003  2.40000e+001 -5.59969e+002  2.04032e+001  1.41400e+003
            25  1.40342e+003  2.50000e+001 -5.59941e+002  2.04032e+001  1.41417e+003
            26  1.40362e+003  2.60000e+001 -5.59911e+002  2.04032e+001  1.41433e+003
            27  1.40381e+003  2.70000e+001 -5.59881e+002  2.04031e+001  1.41450e+003
            28  1.40400e+003  2.80000e+001 -5.59851e+002  2.04031e+001  1.41467e+003
            29  1.40419e+003  2.90000e+001 -5.59825e+002  2.04031e+001  1.41483e+003
            30  1.40438e+003  3.00000e+001 -5.59805e+002  2.04031e+001  1.41500e+003
            31  1.40457e+003  3.10000e+001 -5.59784e+002  2.04031e+001  1.41517e+003
            32  1.40476e+003  3.20000e+001 -5.59768e+002  2.04031e+001  1.41533e+003
            33  1.40494e+003  3.30000e+001 -5.59749e+002  2.04031e+001  1.41550e+003
            34  1.40513e+003  3.40000e+001 -5.59726e+002  2.04032e+001  1.41567e+003
            35  1.40531e+003  3.50000e+001 -5.59718e+002  2.04033e+001  1.41583e+003
            36  1.40549e+003  3.60000e+001 -5.59700e+002  2.04033e+001  1.41600e+003
            37  1.40567e+003  3.70000e+001 -5.59678e+002  2.04034e+001  1.41617e+003
            38  1.40586e+003  3.80000e+001 -5.59652e+002  2.04034e+001  1.41633e+003
            39  1.40603e+003  3.90000e+001 -5.59642e+002  2.04035e+001  1.41650e+003
            40  1.40622e+003  4.00000e+001 -5.59632e+002  2.04035e+001  1.41667e+003
            41  1.40639e+003  4.10000e+001 -5.59618e+002  2.04036e+001  1.41683e+003
            42  1.40657e+003  4.20000e+001 -5.59604e+002  2.04036e+001  1.41700e+003
            43  1.40675e+003  4.30000e+001 -5.59578e+002  2.04036e+001  1.41717e+003
            44  1.40692e+003  4.40000e+001 -5.59566e+002  2.04037e+001  1.41733e+003
            45  1.40710e+003  4.50000e+001 -5.59557e+002  2.04037e+001  1.41750e+003
            46  1.40727e+003  4.60000e+001 -5.59544e+002  2.04037e+001  1.41767e+003
            47  1.40744e+003  4.70000e+001 -5.59536e+002  2.04037e+001  1.41783e+003
            48  1.40762e+003  4.80000e+001 -5.59514e+002  2.04037e+001  1.41800e+003
            49  1.40780e+003  4.90000e+001 -5.59498e+002  2.04038e+001  1.41817e+003
            50  1.40797e+003  5.00000e+001 -5.59483e+002  2.04038e+001  1.41833e+003
            51  1.40814e+003  5.10000e+001 -5.59527e+002  2.04038e+001  1.41850e+003
            52  1.40831e+003  5.20000e+001 -5.59536e+002  2.04038e+001  1.41867e+003
            53  1.40849e+003  5.30000e+001 -5.59555e+002  2.04038e+001  1.41883e+003
            54  1.40865e+003  5.40000e+001 -5.59602e+002  2.04039e+001  1.41900e+003
            55  1.40883e+003  5.50000e+001 -5.59684e+002  2.04039e+001  1.41917e+003
            56  1.40900e+003  5.60000e+001 -5.59558e+002  2.04039e+001  1.41933e+003
            57  1.40917e+003  5.70000e+001 -5.59531e+002  2.04039e+001  1.41950e+003
            58  1.40934e+003  5.80000e+001 -5.59516e+002  2.04040e+001  1.41967e+003
            59  1.40951e+003  5.90000e+001 -5.59509e+002  2.04040e+001  1.41983e+003
            60  1.40969e+003  6.00000e+001 -5.59494e+002  2.04040e+001  1.42000e+003
            61  1.40985e+003  6.10000e+001 -5.59459e+002  2.04041e+001  1.42017e+003
            62  1.41002e+003  6.20000e+001 -5.59444e+002  2.04041e+001  1.42033e+003
            63  1.41018e+003  6.30000e+001 -5.59448e+002  2.04042e+001  1.42050e+003
            64  1.41036e+003  6.40000e+001 -5.59480e+002  2.04042e+001  1.42067e+003
            65  1.41053e+003  6.50000e+001 -5.59490e+002  2.04043e+001  1.42083e+003
            66  1.41070e+003  6.60000e+001 -5.59505e+002  2.04043e+001  1.42100e+003
            67  1.41087e+003  6.70000e+001 -5.59526e+002  2.04043e+001  1.42117e+003
            68  1.41103e+003  6.80000e+001 -5.59529e+002  2.04043e+001  1.42133e+003
            69  1.41120e+003  6.90000e+001 -5.59534e+002  2.04043e+001  1.42150e+003
            70  1.41137e+003  7.00000e+001 -5.59537e+002  2.04043e+001  1.42167e+003
            71  1.41154e+003  7.10000e+001 -5.59537e+002  2.04043e+001  1.42183e+003
            72  1.41170e+003  7.20000e+001 -5.59545e+002  2.04044e+001  1.42200e+003
            73  1.41187e+003  7.30000e+001 -5.59553e+002  2.04044e+001  1.42217e+003
            74  1.41204e+003  7.40000e+001 -5.59559e+002  2.04044e+001  1.42233e+003
            75  1.41220e+003  7.50000e+001 -5.59568e+002  2.04044e+001  1.42250e+003
            76  1.41237e+003  7.60000e+001 -5.59565e+002  2.04045e+001  1.42267e+003
            77  1.41254e+003  7.70000e+001 -5.59568e+002  2.04045e+001  1.42283e+003
            78  1.41271e+003  7.80000e+001 -5.59568e+002  2.04046e+001  1.42300e+003
            79  1.41287e+003  7.90000e+001 -5.59570e+002  2.04046e+001  1.42317e+003
            80  1.41304e+003  8.00000e+001 -5.59577e+002  2.04047e+001  1.42333e+003
            81  1.41321e+003  8.10000e+001 -5.59582e+002  2.04047e+001  1.42350e+003
            82  1.41337e+003  8.20000e+001 -5.59590e+002  2.04047e+001  1.42367e+003
            83  1.41354e+003  8.30000e+001 -5.59610e+002  2.04048e+001  1.42383e+003
            84  1.41371e+003  8.40000e+001 -5.59650e+002  2.04048e+001  1.42400e+003
            85  1.41387e+003  8.50000e+001 -5.59661e+002  2.04049e+001  1.42417e+003
            86  1.41403e+003  8.60000e+001 -5.59571e+002  2.04049e+001  1.42433e+003
            87  1.41420e+003  8.70000e+001 -5.59383e+002  2.04049e+001  1.42450e+003
            88  1.41437e+003  8.80000e+001 -5.59053e+002  2.04050e+001  1.42467e+003
            89  1.41453e+003  8.90000e+001 -5.58842e+002  2.04050e+001  1.42483e+003
            90  1.41470e+003  9.00000e+001 -5.58816e+002  2.04050e+001  1.42500e+003
            91  1.41486e+003  9.10000e+001 -5.58793e+002  2.04051e+001  1.42517e+003
            92  1.41503e+003  9.20000e+001 -5.58823e+002  2.04051e+001  1.42533e+003
            93  1.41520e+003  9.30000e+001 -5.58849e+002  2.04052e+001  1.42550e+003
            94  1.41536e+003  9.40000e+001 -5.58880e+002  2.04052e+001  1.42567e+003
            95  1.41552e+003  9.50000e+001 -5.58908e+002  2.04052e+001  1.42583e+003
            96  1.41569e+003  9.60000e+001 -5.58913e+002  2.04052e+001  1.42600e+003
            97  1.41586e+003  9.70000e+001 -5.58922e+002  2.04052e+001  1.42617e+003
            98  1.41602e+003  9.80000e+001 -5.58935e+002  2.04053e+001  1.42633e+003
            99  1.41618e+003  9.90000e+001 -5.58944e+002  2.04053e+001  1.42650e+003
           100  1.41635e+003  1.00000e+002 -5.58955e+002  2.04053e+001  1.42667e+003
           101  1.41652e+003  1.01000e+002 -5.58968e+002  2.04054e+001  1.42683e+003
           102  1.41668e+003  1.02000e+002 -5.58980e+002  2.04054e+001  1.42700e+003
           103  1.41684e+003  1.03000e+002 -5.58991e+002  2.04055e+001  1.42717e+003
           104  1.41701e+003  1.04000e+002 -5.59009e+002  2.04055e+001  1.42733e+003
           105  1.41717e+003  1.05000e+002 -5.59028e+002  2.04055e+001  1.42750e+003
           106  1.41734e+003  1.06000e+002 -5.59047e+002  2.04056e+001  1.42767e+003
           107  1.41750e+003  1.07000e+002 -5.59065e+002  2.04056e+001  1.42783e+003
           108  1.41767e+003  1.08000e+002 -5.59090e+002  2.04057e+001  1.42800e+003
           109  1.41783e+003  1.09000e+002 -5.59112e+002  2.04057e+001  1.42817e+003
           110  1.41799e+003  1.10000e+002 -5.59128e+002  2.04057e+001  1.42833e+003
           111  1.41816e+003  1.11000e+002 -5.59143e+002  2.04058e+001  1.42850e+003
           112  1.41833e+003  1.12000e+002 -5.59163e+002  2.04058e+001  1.42867e+003
           113  1.41848e+003  1.13000e+002 -5.59179e+002  2.04058e+001  1.42883e+003
           114  1.41865e+003  1.14000e+002 -5.59197e+002  2.04058e+001  1.42900e+003
           115  1.41881e+003  1.15000e+002 -5.59212e+002  2.04058e+001  1.42917e+003
           116  1.41898e+003  1.16000e+002 -5.59223e+002  2.04058e+001  1.42933e+003
           117  1.41914e+003  1.17000e+002 -5.59238e+002  2.04059e+001  1.42950e+003
           118  1.41930e+003  1.18000e+002 -5.59249e+002  2.04059e+001  1.42967e+003
           119  1.41947e+003  1.19000e+002 -5.59259e+002  2.04059e+001  1.42983e+003
           120  1.41963e+003  1.20000e+002 -5.59258e+002  2.04059e+001  1.43000e+003
           121  1.41979e+003  1.21000e+002 -5.59264e+002  2.04059e+001  1.43017e+003
           122  1.41997e+003  1.22000e+002 -5.59274e+002  2.04059e+001  1.43033e+003
           123  1.42012e+003  1.23000e+002 -5.59286e+002  2.04059e+001  1.43050e+003
           124  1.42029e+003  1.24000e+002 -5.59295e+002  2.04060e+001  1.43067e+003
           125  1.42045e+003  1.25000e+002 -5.59297e+002  2.04060e+001  1.43083e+003
           126  1.42061e+003  1.26000e+002 -5.59297e+002  2.04060e+001  1.43100e+003
           127  1.42077e+003  1.27000e+002 -5.59299e+002  2.04061e+001  1.43117e+003
           128  1.42094e+003  1.28000e+002 -5.59304e+002  2.04062e+001  1.43133e+003
           129  1.42110e+003  1.29000e+002 -5.59308e+002  2.04063e+001  1.43150e+003
           130  1.42127e+003  1.30000e+002 -5.59313e+002  2.04063e+001  1.43167e+003
           131  1.42143e+003  1.31000e+002 -5.59318e+002  2.04064e+001  1.43183e+003
           132  1.42159e+003  1.32000e+002 -5.59325e+002  2.04065e+001  1.43200e+003
           133  1.42175e+003  1.33000e+002 -5.59331e+002  2.04066e+001  1.43217e+003
           134  1.42192e+003  1.34000e+002 -5.59340e+002  2.04066e+001  1.43233e+003
           135  1.42208e+003  1.35000e+002 -5.59347e+002  2.04067e+001  1.43250e+003
           136  1.42224e+003  1.36000e+002 -5.59353e+002  2.04067e+001  1.43267e+003
           137  1.42240e+003  1.37000e+002 -5.59400e+002  2.04067e+001  1.43283e+003
           138  1.42256e+003  1.38000e+002 -5.59419e+002  2.04067e+001  1.43300e+003
           139  1.42273e+003  1.39000e+002 -5.59430e+002  2.04067e+001  1.43317e+003
           140  1.42289e+003  1.40000e+002 -5.59438e+002  2.04067e+001  1.43333e+003
           141  1.42305e+003  1.41000e+002 -5.59463e+002  2.04067e+001  1.43350e+003
           142  1.42321e+003  1.42000e+002 -5.59503e+002  2.04066e+001  1.43367e+003
           143  1.42337e+003  1.43000e+002 -5.59577e+002  2.04066e+001  1.43383e+003
           144  1.42354e+003  1.44000e+002 -5.59643e+002  2.04066e+001  1.43400e+003
           145  1.42369e+003  1.45000e+002 -5.59558e+002  2.04066e+001  1.43417e+003
           146  1.42386e+003  1.46000e+002 -5.59519e+002  2.04066e+001  1.43433e+003
           147  1.42401e+003  1.47000e+002 -5.59485e+002  2.04066e+001  1.43450e+003
           148  1.42418e+003  1.48000e+002 -5.59448e+002  2.04067e+001  1.43467e+003
           149  1.42435e+003  1.49000e+002 -5.59420e+002  2.04067e+001  1.43483e+003
           150  1.42451e+003  1.50000e+002 -5.59407e+002  2.04068e+001  1.43500e+003
           151  1.42467e+003  1.51000e+002 -5.59396e+002  2.04068e+001  1.43517e+003
           152  1.42483e+003  1.52000e+002 -5.59387e+002  2.04069e+001  1.43533e+003
           153  1.42500e+003  1.53000e+002 -5.59386e+002  2.04070e+001  1.43550e+003
           154  1.42516e+003  1.54000e+002 -5.59371e+002  2.04071e+001  1.43567e+003
           155  1.42532e+003  1.55000e+002 -5.59353e+002  2.04071e+001  1.43583e+003
           156  1.42548e+003  1.56000e+002 -5.59338e+002  2.04072e+001  1.43600e+003
           157  1.42564e+003  1.57000e+002 -5.59339e+002  2.04072e+001  1.43617e+003
           158  1.42581e+003  1.58000e+002 -5.59336e+002  2.04073e+001  1.43633e+003
           159  1.42596e+003  1.59000e+002 -5.59333e+002  2.04073e+001  1.43650e+003
           160  1.42613e+003  1.60000e+002 -5.59333e+002  2.04073e+001  1.43667e+003
           161  1.42628e+003  1.61000e+002 -5.59342e+002  2.04073e+001  1.43683e+003
           162  1.42645e+003  1.62000e+002 -5.59341e+002  2.04073e+001  1.43700e+003
           163  1.42661e+003  1.63000e+002 -5.59334e+002  2.04073e+001  1.43717e+003
           164  1.42677e+003  1.64000e+002 -5.59315e+002  2.04073e+001  1.43733e+003
           165  1.42694e+003  1.65000e+002 -5.59351e+002  2.04073e+001  1.43750e+003
           166  1.42710e+003  1.66000e+002 -5.59364e+002  2.04073e+001  1.43767e+003
           167  1.42726e+003  1.67000e+002 -5.59381e+002  2.04073e+001  1.43783e+003
           168  1.42742e+003  1.68000e+002 -5.59412e+002  2.04073e+001  1.43800e+003
           169  1.42758e+003  1.69000e+002 -5.59519e+002  2.04073e+001  1.43817e+003
           170  1.42774e+003  1.70000e+002 -5.59637e+002  2.04074e+001  1.43833e+003
           171  1.42790e+003  1.71000e+002 -5.59712e+002  2.04074e+001  1.43850e+003
           172  1.42806e+003  1.72000e+002 -5.59600e+002  2.04074e+001  1.43867e+003
           173  1.42822e+003  1.73000e+002 -5.59524e+002  2.04075e+001  1.43883e+003
           174  1.42838e+003  1.74000e+002 -5.59488e+002  2.04075e+001  1.43900e+003
           175  1.42855e+003  1.75000e+002 -5.59483e+002  2.04075e+001  1.43917e+003
           176  1.42871e+003  1.76000e+002 -5.59460e+002  2.04076e+001  1.43933e+003
           177  1.42887e+003  1.77000e+002 -5.59488e+002  2.04076e+001  1.43950e+003
           178  1.42903e+003  1.78000e+002 -5.59473e+002  2.04077e+001  1.43967e+003
           179  1.42919e+003  1.79000e+002 -5.59468e+002  2.04077e+001  1.43983e+003
           180  1.42935e+003  1.80000e+002 -5.59506e+002  2.04078e+001  1.44000e+003
           181  1.42951e+003  1.81000e+002 -5.59565e+002  2.04078e+001  1.44017e+003
           182  1.42967e+003  1.82000e+002 -5.59583e+002  2.04079e+001  1.44033e+003
           183  1.42983e+003  1.83000e+002 -5.59597e+002  2.04079e+001  1.44050e+003
           184  1.43000e+003  1.84000e+002 -5.59607e+002  2.04079e+001  1.44067e+003
           185  1.43015e+003  1.85000e+002 -5.59596e+002  2.04079e+001  1.44083e+003
           186  1.43031e+003  1.86000e+002 -5.59597e+002  2.04079e+001  1.44100e+003
           187  1.43047e+003  1.87000e+002 -5.59602e+002  2.04079e+001  1.44117e+003
           188  1.43063e+003  1.88000e+002 -5.59607e+002  2.04078e+001  1.44133e+003
           189  1.43080e+003  1.89000e+002 -5.59600e+002  2.04078e+001  1.44150e+003
           190  1.43095e+003  1.90000e+002 -5.59600e+002  2.04078e+001  1.44167e+003
           191  1.43112e+003  1.91000e+002 -5.59597e+002  2.04078e+001  1.44183e+003
           192  1.43128e+003  1.92000e+002 -5.59593e+002  2.04078e+001  1.44200e+003
           193  1.43143e+003  1.93000e+002 -5.59575e+002  2.04079e+001  1.44217e+003
           194  1.43159e+003  1.94000e+002 -5.59563e+002  2.04079e+001  1.44233e+003
           195  1.43175e+003  1.95000e+002 -5.59557e+002  2.04080e+001  1.44250e+003
           196  1.43191e+003  1.96000e+002 -5.59552e+002  2.04080e+001  1.44267e+003
           197  1.43207e+003  1.97000e+002 -5.59537e+002  2.04081e+001  1.44283e+003
           198  1.43224e+003  1.98000e+002 -5.59525e+002  2.04082e+001  1.44300e+003
           199  1.43239e+003  1.99000e+002 -5.59513e+002  2.04083e+001  1.44317e+003
           200  1.43255e+003  2.00000e+002 -5.59498e+002  2.04084e+001  1.44333e+003
           201  1.43271e+003  2.01000e+002 -5.59482e+002  2.04084e+001  1.44350e+003
           202  1.43287e+003  2.02000e+002 -5.59471e+002  2.04085e+001  1.44367e+003
           203  1.43303e+003  2.03000e+002 -5.59460e+002  2.04086e+001  1.44383e+003
           204  1.43320e+003  2.04000e+002 -5.59448e+002  2.04086e+001  1.44400e+003
           205  1.43335e+003  2.05000e+002 -5.59444e+002  2.04086e+001  1.44417e+003
           206  1.43351e+003  2.06000e+002 -5.59436e+002  2.04086e+001  1.44433e+003
           207  1.43367e+003  2.07000e+002 -5.59431e+002  2.04086e+001  1.44450e+003
           208  1.43383e+003  2.08000e+002 -5.59432e+002  2.04086e+001  1.44467e+003
           209  1.43399e+003  2.09000e+002 -5.59426e+002  2.04086e+001  1.44483e+003
           210  1.43415e+003  2.10000e+002 -5.59395e+002  2.04086e+001  1.44500e+003
           211  1.43431e+003  2.11000e+002 -5.59368e+002  2.04086e+001  1.44517e+003
           212  1.43447e+003  2.12000e+002 -5.59382e+002  2.04087e+001  1.44533e+003
           213  1.43463e+003  2.13000e+002 -5.59435e+002  2.04088e+001  1.44550e+003
           214  1.43478e+003  2.14000e+002 -5.59453e+002  2.04088e+001  1.44567e+003
           215  1.43495e+003  2.15000e+002 -5.59460e+002  2.04089e+001  1.44583e+003
           216  1.43511e+003  2.16000e+002 -5.59465e+002  2.04089e+001  1.44600e+003
           217  1.43526e+003  2.17000e+002 -5.59473e+002  2.04090e+001  1.44617e+003
           218  1.43543e+003  2.18000e+002 -5.59518e+002  2.04091e+001  1.44633e+003
           219  1.43558e+003  2.19000e+002 -5.59543e+002  2.04091e+001  1.44650e+003
           220  1.43574e+003  2.20000e+002 -5.59562e+002  2.04091e+001  1.44667e+003
           221  1.43590e+003  2.21000e+002 -5.59580e+002  2.04091e+001  1.44683e+003
           222  1.43606e+003  2.22000e+002 -5.59603e+002  2.04091e+001  1.44700e+003
           223  1.43622e+003  2.23000e+002 -5.59624e+002  2.04091e+001  1.44717e+003
           224  1.43638e+003  2.24000e+002 -5.59643e+002  2.04091e+001  1.44733e+003
           225  1.43654e+003  2.25000e+002 -5.59659e+002  2.04091e+001  1.44750e+003
           226  1.43669e+003  2.26000e+002 -5.59662e+002  2.04091e+001  1.44767e+003
           227  1.43685e+003  2.27000e+002 -5.59671e+002  2.04091e+001  1.44783e+003
           228  1.43701e+003  2.28000e+002 -5.59678e+002  2.04091e+001  1.44800e+003
           229  1.43717e+003  2.29000e+002 -5.59680e+002  2.04091e+001  1.44817e+003
