         Index            Ts             t            HF        Weight            Tr
           [#]          [°C]           [s]          [mW]          [mg]          [°C]
             0  6.16338e+002  0.00000e+000 -6.73081e+001  8.79633e+000  6.10000e+002
             1  6.16431e+002  1.00000e+000 -6.72343e+001  8.79623e+000  6.10083e+002
             2  6.16565e+002  2.00000e+000 -6.71778e+001  8.79613e+000  6.10167e+002
             3  6.16690e+002  3.00000e+000 -6.72599e+001  8.79599e+000  6.10250e+002
             4  6.16816e+002  4.00000e+000 -6.73555e+001  8.79586e+000  6.10333e+002
             5  6.16957e+002  5.00000e+000 -6.74580e+001  8.79574e+000  6.10417e+002
             6  6.17104e+002  6.00000e+000 -6.75525e+001  8.79562e+000  6.10500e+002
             7  6.17252e+002  7.00000e+000 -6.77112e+001  8.79551e+000  6.10583e+002
             8  6.17414e+002  8.00000e+000 -6.78371e+001  8.79543e+000  6.10667e+002
             9  6.17573e+002  9.00000e+000 -6.79477e+001  8.79538e+000  6.10750e+002
            10  6.17736e+002  1.00000e+001 -6.80476e+001  8.79534e+000  6.10833e+002
            11  6.17898e+002  1.10000e+001 -6.81409e+001  8.79531e+000  6.10917e+002
            12  6.18064e+002  1.20000e+001 -6.82537e+001  8.79535e+000  6.11000e+002
            13  6.18228e+002  1.30000e+001 -6.83666e+001  8.79536e+000  6.11083e+002
            14  6.18401e+002  1.40000e+001 -6.84781e+001  8.79537e+000  6.11167e+002
            15  6.18570e+002  1.50000e+001 -6.85864e+001  8.79538e+000  6.11250e+002
            16  6.18739e+002  1.60000e+001 -6.86376e+001  8.79540e+000  6.11333e+002
            17  6.18904e+002  1.70000e+001 -6.87125e+001  8.79542e+000  6.11417e+002
            18  6.19070e+002  1.80000e+001 -6.87930e+001  8.79543e+000  6.11500e+002
            19  6.19235e+002  1.90000e+001 -6.88612e+001  8.79544e+000  6.11583e+002
            20  6.19403e+002  2.00000e+001 -6.88774e+001  8.79543e+000  6.11667e+002
            21  6.19566e+002  2.10000e+001 -6.89159e+001  8.79541e+000  6.11750e+002
            22  6.19730e+002  2.20000e+001 -6.89593e+001  8.79537e+000  6.11833e+002
            23  6.19896e+002  2.30000e+001 -6.89913e+001  8.79532e+000  6.11917e+002
            24  6.20060e+002  2.40000e+001 -6.89592e+001  8.79522e+000  6.12000e+002
            25  6.20216e+002  2.50000e+001 -6.89591e+001  8.79514e+000  6.12083e+002
            26  6.20372e+002  2.60000e+001 -6.89624e+001  8.79506e+000  6.12167e+002
            27  6.20534e+002  2.70000e+001 -6.89629e+001  8.79497e+000  6.12250e+002
            28  6.20690e+002  2.80000e+001 -6.89178e+001  8.79488e+000  6.12333e+002
            29  6.20839e+002  2.90000e+001 -6.88989e+001  8.79479e+000  6.12417e+002
            30  6.20992e+002  3.00000e+001 -6.88835e+001  8.79470e+000  6.12500e+002
            31  6.21139e+002  3.10000e+001 -6.88662e+001  8.79461e+000  6.12583e+002
            32  6.21293e+002  3.20000e+001 -6.88334e+001  8.79453e+000  6.12667e+002
            33  6.21437e+002  3.30000e+001 -6.88056e+001  8.79444e+000  6.12750e+002
            34  6.21591e+002  3.40000e+001 -6.87777e+001  8.79436e+000  6.12833e+002
            35  6.21724e+002  3.50000e+001 -6.87482e+001  8.79428e+000  6.12917e+002
            36  6.21872e+002  3.60000e+001 -6.87046e+001  8.79422e+000  6.13000e+002
            37  6.22017e+002  3.70000e+001 -6.86679e+001  8.79416e+000  6.13083e+002
            38  6.22156e+002  3.80000e+001 -6.86323e+001  8.79412e+000  6.13167e+002
            39  6.22291e+002  3.90000e+001 -6.85962e+001  8.79409e+000  6.13250e+002
            40  6.22429e+002  4.00000e+001 -6.85483e+001  8.79409e+000  6.13333e+002
            41  6.22560e+002  4.10000e+001 -6.85048e+001  8.79407e+000  6.13417e+002
            42  6.22697e+002  4.20000e+001 -6.84613e+001  8.79405e+000  6.13500e+002
            43  6.22824e+002  4.30000e+001 -6.84169e+001  8.79402e+000  6.13583e+002
            44  6.22955e+002  4.40000e+001 -6.83656e+001  8.79398e+000  6.13667e+002
            45  6.23082e+002  4.50000e+001 -6.83185e+001  8.79394e+000  6.13750e+002
            46  6.23211e+002  4.60000e+001 -6.82714e+001  8.79389e+000  6.13833e+002
            47  6.23343e+002  4.70000e+001 -6.82231e+001  8.79384e+000  6.13917e+002
            48  6.23466e+002  4.80000e+001 -6.81686e+001  8.79378e+000  6.14000e+002
            49  6.23591e+002  4.90000e+001 -6.81174e+001  8.79374e+000  6.14083e+002
            50  6.23717e+002  5.00000e+001 -6.80671e+001  8.79372e+000  6.14167e+002
            51  6.23843e+002  5.10000e+001 -6.80173e+001  8.79370e+000  6.14250e+002
            52  6.23962e+002  5.20000e+001 -6.79627e+001  8.79374e+000  6.14333e+002
            53  6.24080e+002  5.30000e+001 -6.79109e+001  8.79377e+000  6.14417e+002
            54  6.24207e+002  5.40000e+001 -6.78596e+001  8.79381e+000  6.14500e+002
            55  6.24326e+002  5.50000e+001 -6.78078e+001  8.79385e+000  6.14583e+002
            56  6.24444e+002  5.60000e+001 -6.77558e+001  8.79391e+000  6.14667e+002
            57  6.24565e+002  5.70000e+001 -6.77061e+001  8.79395e+000  6.14750e+002
            58  6.24684e+002  5.80000e+001 -6.76575e+001  8.79397e+000  6.14833e+002
            59  6.24798e+002  5.90000e+001 -6.76088e+001  8.79399e+000  6.14917e+002
            60  6.24905e+002  6.00000e+001 -6.75657e+001  8.79395e+000  6.15000e+002
            61  6.25024e+002  6.10000e+001 -6.75212e+001  8.79391e+000  6.15083e+002
            62  6.25136e+002  6.20000e+001 -6.74768e+001  8.79386e+000  6.15167e+002
            63  6.25253e+002  6.30000e+001 -6.74331e+001  8.79380e+000  6.15250e+002
            64  6.25366e+002  6.40000e+001 -6.73955e+001  8.79369e+000  6.15333e+002
            65  6.25473e+002  6.50000e+001 -6.73563e+001  8.79360e+000  6.15417e+002
            66  6.25590e+002  6.60000e+001 -6.73175e+001  8.79352e+000  6.15500e+002
            67  6.25697e+002  6.70000e+001 -6.72787e+001  8.79344e+000  6.15583e+002
            68  6.25806e+002  6.80000e+001 -6.72482e+001  8.79337e+000  6.15667e+002
            69  6.25920e+002  6.90000e+001 -6.72132e+001  8.79329e+000  6.15750e+002
            70  6.26025e+002  7.00000e+001 -6.71773e+001  8.79322e+000  6.15833e+002
            71  6.26130e+002  7.10000e+001 -6.71406e+001  8.79314e+000  6.15917e+002
            72  6.26233e+002  7.20000e+001 -6.71099e+001  8.79306e+000  6.16000e+002
            73  6.26342e+002  7.30000e+001 -6.70763e+001  8.79297e+000  6.16083e+002
            74  6.26444e+002  7.40000e+001 -6.70410e+001  8.79288e+000  6.16167e+002
            75  6.26553e+002  7.50000e+001 -6.70048e+001  8.79278e+000  6.16250e+002
            76  6.26657e+002  7.60000e+001 -6.69708e+001  8.79267e+000  6.16333e+002
            77  6.26756e+002  7.70000e+001 -6.69361e+001  8.79257e+000  6.16417e+002
            78  6.26860e+002  7.80000e+001 -6.69007e+001  8.79249e+000  6.16500e+002
            79  6.26970e+002  7.90000e+001 -6.68662e+001  8.79243e+000  6.16583e+002
            80  6.27072e+002  8.00000e+001 -6.68324e+001  8.79237e+000  6.16667e+002
            81  6.27175e+002  8.10000e+001 -6.67970e+001  8.79236e+000  6.16750e+002
            82  6.27277e+002  8.20000e+001 -6.67626e+001  8.79234e+000  6.16833e+002
            83  6.27385e+002  8.30000e+001 -6.67286e+001  8.79233e+000  6.16917e+002
            84  6.27488e+002  8.40000e+001 -6.66948e+001  8.79233e+000  6.17000e+002
            85  6.27589e+002  8.50000e+001 -6.66637e+001  8.79237e+000  6.17083e+002
            86  6.27691e+002  8.60000e+001 -6.66322e+001  8.79239e+000  6.17167e+002
            87  6.27792e+002  8.70000e+001 -6.66004e+001  8.79240e+000  6.17250e+002
            88  6.27891e+002  8.80000e+001 -6.65683e+001  8.79242e+000  6.17333e+002
            89  6.27989e+002  8.90000e+001 -6.65379e+001  8.79244e+000  6.17417e+002
            90  6.28093e+002  9.00000e+001 -6.65074e+001  8.79245e+000  6.17500e+002
            91  6.28185e+002  9.10000e+001 -6.64776e+001  8.79245e+000  6.17583e+002
            92  6.28286e+002  9.20000e+001 -6.64489e+001  8.79245e+000  6.17667e+002
            93  6.28390e+002  9.30000e+001 -6.64219e+001  8.79245e+000  6.17750e+002
            94  6.28488e+002  9.40000e+001 -6.63943e+001  8.79244e+000  6.17833e+002
            95  6.28583e+002  9.50000e+001 -6.63676e+001  8.79243e+000  6.17917e+002
            96  6.28678e+002  9.60000e+001 -6.63420e+001  8.79242e+000  6.18000e+002
            97  6.28779e+002  9.70000e+001 -6.63192e+001  8.79241e+000  6.18083e+002
            98  6.28871e+002  9.80000e+001 -6.62957e+001  8.79239e+000  6.18167e+002
            99  6.28970e+002  9.90000e+001 -6.62729e+001  8.79237e+000  6.18250e+002
           100  6.29070e+002  1.00000e+002 -6.62509e+001  8.79235e+000  6.18333e+002
           101  6.29164e+002  1.01000e+002 -6.62351e+001  8.79230e+000  6.18417e+002
           102  6.29261e+002  1.02000e+002 -6.62151e+001  8.79225e+000  6.18500e+002
           103  6.29360e+002  1.03000e+002 -6.61947e+001  8.79220e+000  6.18583e+002
           104  6.29451e+002  1.04000e+002 -6.61745e+001  8.79213e+000  6.18667e+002
           105  6.29545e+002  1.05000e+002 -6.61603e+001  8.79203e+000  6.18750e+002
           106  6.29640e+002  1.06000e+002 -6.61426e+001  8.79194e+000  6.18833e+002
           107  6.29732e+002  1.07000e+002 -6.61238e+001  8.79184e+000  6.18917e+002
           108  6.29830e+002  1.08000e+002 -6.61055e+001  8.79173e+000  6.19000e+002
           109  6.29927e+002  1.09000e+002 -6.60898e+001  8.79160e+000  6.19083e+002
           110  6.30014e+002  1.10000e+002 -6.60731e+001  8.79150e+000  6.19167e+002
           111  6.30113e+002  1.11000e+002 -6.60555e+001  8.79140e+000  6.19250e+002
           112  6.30202e+002  1.12000e+002 -6.60375e+001  8.79131e+000  6.19333e+002
           113  6.30295e+002  1.13000e+002 -6.60212e+001  8.79124e+000  6.19417e+002
           114  6.30395e+002  1.14000e+002 -6.60039e+001  8.79118e+000  6.19500e+002
           115  6.30487e+002  1.15000e+002 -6.59861e+001  8.79113e+000  6.19583e+002
           116  6.30580e+002  1.16000e+002 -6.59681e+001  8.79109e+000  6.19667e+002
           117  6.30677e+002  1.17000e+002 -6.59502e+001  8.79110e+000  6.19750e+002
           118  6.30771e+002  1.18000e+002 -6.59305e+001  8.79110e+000  6.19833e+002
           119  6.30855e+002  1.19000e+002 -6.59101e+001  8.79110e+000  6.19917e+002
           120  6.30947e+002  1.20000e+002 -6.58893e+001  8.79110e+000  6.20000e+002
           121  6.31039e+002  1.21000e+002 -6.58641e+001  8.79115e+000  6.20083e+002
           122  6.31132e+002  1.22000e+002 -6.58417e+001  8.79118e+000  6.20167e+002
           123  6.31220e+002  1.23000e+002 -6.58191e+001  8.79122e+000  6.20250e+002
           124  6.31314e+002  1.24000e+002 -6.57964e+001  8.79126e+000  6.20333e+002
           125  6.31403e+002  1.25000e+002 -6.57721e+001  8.79132e+000  6.20417e+002
           126  6.31496e+002  1.26000e+002 -6.57501e+001  8.79136e+000  6.20500e+002
           127  6.31589e+002  1.27000e+002 -6.57290e+001  8.79140e+000  6.20583e+002
           128  6.31682e+002  1.28000e+002 -6.57082e+001  8.79144e+000  6.20667e+002
           129  6.31776e+002  1.29000e+002 -6.56867e+001  8.79147e+000  6.20750e+002
           130  6.31862e+002  1.30000e+002 -6.56670e+001  8.79150e+000  6.20833e+002
           131  6.31954e+002  1.31000e+002 -6.56494e+001  8.79152e+000  6.20917e+002
           132  6.32039e+002  1.32000e+002 -6.56336e+001  8.79153e+000  6.21000e+002
           133  6.32128e+002  1.33000e+002 -6.56225e+001  8.79152e+000  6.21083e+002
           134  6.32221e+002  1.34000e+002 -6.56095e+001  8.79151e+000  6.21167e+002
           135  6.32315e+002  1.35000e+002 -6.55973e+001  8.79148e+000  6.21250e+002
           136  6.32401e+002  1.36000e+002 -6.55852e+001  8.79145e+000  6.21333e+002
           137  6.32490e+002  1.37000e+002 -6.55815e+001  8.79138e+000  6.21417e+002
           138  6.32577e+002  1.38000e+002 -6.55751e+001  8.79132e+000  6.21500e+002
           139  6.32664e+002  1.39000e+002 -6.55682e+001  8.79124e+000  6.21583e+002
           140  6.32756e+002  1.40000e+002 -6.55626e+001  8.79116e+000  6.21667e+002
           141  6.32850e+002  1.41000e+002 -6.55653e+001  8.79105e+000  6.21750e+002
           142  6.32937e+002  1.42000e+002 -6.55621e+001  8.79095e+000  6.21833e+002
           143  6.33026e+002  1.43000e+002 -6.55573e+001  8.79084e+000  6.21917e+002
           144  6.33111e+002  1.44000e+002 -6.55533e+001  8.79074e+000  6.22000e+002
           145  6.33200e+002  1.45000e+002 -6.55525e+001  8.79061e+000  6.22083e+002
           146  6.33290e+002  1.46000e+002 -6.55487e+001  8.79049e+000  6.22167e+002
           147  6.33380e+002  1.47000e+002 -6.55426e+001  8.79036e+000  6.22250e+002
           148  6.33466e+002  1.48000e+002 -6.55360e+001  8.79023e+000  6.22333e+002
           149  6.33552e+002  1.49000e+002 -6.55291e+001  8.79010e+000  6.22417e+002
           150  6.33644e+002  1.50000e+002 -6.55208e+001  8.78998e+000  6.22500e+002
           151  6.33726e+002  1.51000e+002 -6.55112e+001  8.78987e+000  6.22583e+002
           152  6.33814e+002  1.52000e+002 -6.55007e+001  8.78977e+000  6.22667e+002
           153  6.33901e+002  1.53000e+002 -6.54816e+001  8.78972e+000  6.22750e+002
           154  6.33990e+002  1.54000e+002 -6.54643e+001  8.78969e+000  6.22833e+002
           155  6.34077e+002  1.55000e+002 -6.54470e+001  8.78968e+000  6.22917e+002
           156  6.34159e+002  1.56000e+002 -6.54297e+001  8.78969e+000  6.23000e+002
           157  6.34253e+002  1.57000e+002 -6.54064e+001  8.78980e+000  6.23083e+002
           158  6.34339e+002  1.58000e+002 -6.53877e+001  8.78989e+000  6.23167e+002
           159  6.34427e+002  1.59000e+002 -6.53701e+001  8.78999e+000  6.23250e+002
           160  6.34515e+002  1.60000e+002 -6.53533e+001  8.79010e+000  6.23333e+002
           161  6.34598e+002  1.61000e+002 -6.53317e+001  8.79026e+000  6.23417e+002
           162  6.34689e+002  1.62000e+002 -6.53141e+001  8.79038e+000  6.23500e+002
           163  6.34770e+002  1.63000e+002 -6.52986e+001  8.79049e+000  6.23583e+002
           164  6.34854e+002  1.64000e+002 -6.52849e+001  8.79059e+000  6.23667e+002
           165  6.34946e+002  1.65000e+002 -6.52765e+001  8.79064e+000  6.23750e+002
           166  6.35033e+002  1.66000e+002 -6.52667e+001  8.79067e+000  6.23833e+002
           167  6.35124e+002  1.67000e+002 -6.52590e+001  8.79069e+000  6.23917e+002
           168  6.35206e+002  1.68000e+002 -6.52521e+001  8.79069e+000  6.24000e+002
           169  6.35287e+002  1.69000e+002 -6.52539e+001  8.79059e+000  6.24083e+002
           170  6.35381e+002  1.70000e+002 -6.52502e+001  8.79050e+000  6.24167e+002
           171  6.35463e+002  1.71000e+002 -6.52453e+001  8.79041e+000  6.24250e+002
           172  6.35553e+002  1.72000e+002 -6.52417e+001  8.79029e+000  6.24333e+002
           173  6.35639e+002  1.73000e+002 -6.52402e+001  8.79016e+000  6.24417e+002
           174  6.35722e+002  1.74000e+002 -6.52500e+001  8.78997e+000  6.24500e+002
           175  6.35811e+002  1.75000e+002 -6.52524e+001  8.78981e+000  6.24583e+002
           176  6.35892e+002  1.76000e+002 -6.52526e+001  8.78966e+000  6.24667e+002
           177  6.35984e+002  1.77000e+002 -6.52522e+001  8.78951e+000  6.24750e+002
           178  6.36068e+002  1.78000e+002 -6.52554e+001  8.78939e+000  6.24833e+002
           179  6.36157e+002  1.79000e+002 -6.52565e+001  8.78928e+000  6.24917e+002
           180  6.36242e+002  1.80000e+002 -6.52561e+001  8.78919e+000  6.25000e+002
           181  6.36330e+002  1.81000e+002 -6.52552e+001  8.78910e+000  6.25083e+002
           182  6.36408e+002  1.82000e+002 -6.52547e+001  8.78908e+000  6.25167e+002
           183  6.36495e+002  1.83000e+002 -6.52515e+001  8.78903e+000  6.25250e+002
           184  6.36580e+002  1.84000e+002 -6.52464e+001  8.78899e+000  6.25333e+002
           185  6.36662e+002  1.85000e+002 -6.52398e+001  8.78895e+000  6.25417e+002
           186  6.36747e+002  1.86000e+002 -6.52258e+001  8.78892e+000  6.25500e+002
           187  6.36834e+002  1.87000e+002 -6.52142e+001  8.78889e+000  6.25583e+002
           188  6.36916e+002  1.88000e+002 -6.52028e+001  8.78885e+000  6.25667e+002
           189  6.37002e+002  1.89000e+002 -6.51914e+001  8.78881e+000  6.25750e+002
           190  6.37089e+002  1.90000e+002 -6.51700e+001  8.78879e+000  6.25833e+002
           191  6.37175e+002  1.91000e+002 -6.51535e+001  8.78878e+000  6.25917e+002
           192  6.37258e+002  1.92000e+002 -6.51385e+001  8.78880e+000  6.26000e+002
           193  6.37343e+002  1.93000e+002 -6.51244e+001  8.78883e+000  6.26083e+002
           194  6.37427e+002  1.94000e+002 -6.51041e+001  8.78892e+000  6.26167e+002
           195  6.37517e+002  1.95000e+002 -6.50870e+001  8.78901e+000  6.26250e+002
           196  6.37596e+002  1.96000e+002 -6.50708e+001  8.78910e+000  6.26333e+002
           197  6.37685e+002  1.97000e+002 -6.50556e+001  8.78920e+000  6.26417e+002
           198  6.37772e+002  1.98000e+002 -6.50425e+001  8.78933e+000  6.26500e+002
           199  6.37854e+002  1.99000e+002 -6.50300e+001  8.78943e+000  6.26583e+002
           200  6.37937e+002  2.00000e+002 -6.50185e+001  8.78951e+000  6.26667e+002
           201  6.38028e+002  2.01000e+002 -6.50078e+001  8.78959e+000  6.26750e+002
           202  6.38108e+002  2.02000e+002 -6.50022e+001  8.78960e+000  6.26833e+002
           203  6.38197e+002  2.03000e+002 -6.49932e+001  8.78960e+000  6.26917e+002
           204  6.38279e+002  2.04000e+002 -6.49848e+001  8.78958e+000  6.27000e+002
           205  6.38360e+002  2.05000e+002 -6.49777e+001  8.78955e+000  6.27083e+002
           206  6.38448e+002  2.06000e+002 -6.49759e+001  8.78943e+000  6.27167e+002
           207  6.38531e+002  2.07000e+002 -6.49711e+001  8.78934e+000  6.27250e+002
           208  6.38615e+002  2.08000e+002 -6.49674e+001  8.78926e+000  6.27333e+002
           209  6.38696e+002  2.09000e+002 -6.49644e+001  8.78917e+000  6.27417e+002
           210  6.38781e+002  2.10000e+002 -6.49645e+001  8.78905e+000  6.27500e+002
           211  6.38865e+002  2.11000e+002 -6.49616e+001  8.78894e+000  6.27583e+002
           212  6.38952e+002  2.12000e+002 -6.49583e+001  8.78883e+000  6.27667e+002
           213  6.39037e+002  2.13000e+002 -6.49549e+001  8.78872e+000  6.27750e+002
           214  6.39114e+002  2.14000e+002 -6.49545e+001  8.78861e+000  6.27833e+002
           215  6.39200e+002  2.15000e+002 -6.49524e+001  8.78851e+000  6.27917e+002
           216  6.39285e+002  2.16000e+002 -6.49491e+001  8.78843e+000  6.28000e+002
           217  6.39366e+002  2.17000e+002 -6.49457e+001  8.78835e+000  6.28083e+002
           218  6.39449e+002  2.18000e+002 -6.49423e+001  8.78830e+000  6.28167e+002
           219  6.39537e+002  2.19000e+002 -6.49387e+001  8.78826e+000  6.28250e+002
           220  6.39623e+002  2.20000e+002 -6.49343e+001  8.78822e+000  6.28333e+002
           221  6.39710e+002  2.21000e+002 -6.49289e+001  8.78819e+000  6.28417e+002
           222  6.39792e+002  2.22000e+002 -6.49193e+001  8.78820e+000  6.28500e+002
           223  6.39874e+002  2.23000e+002 -6.49106e+001  8.78820e+000  6.28583e+002
           224  6.39958e+002  2.24000e+002 -6.49027e+001  8.78819e+000  6.28667e+002
           225  6.40042e+002  2.25000e+002 -6.48955e+001  8.78819e+000  6.28750e+002
           226  6.40127e+002  2.26000e+002 -6.48849e+001  8.78819e+000  6.28833e+002
           227  6.40214e+002  2.27000e+002 -6.48760e+001  8.78819e+000  6.28917e+002
           228  6.40294e+002  2.28000e+002 -6.48672e+001  8.78819e+000  6.29000e+002
           229  6.40383e+002  2.29000e+002 -6.48584e+001  8.78818e+000  6.29083e+002
