         Index            Ts             t            HF        Weight            Tr
           [#]          [°C]           [s]          [mW]          [mg]          [°C]
             0  1.59295e+002  0.00000e+000 -1.64079e+001  1.32544e+001  1.25000e+002
             1  1.59158e+002  1.00000e+000 -1.64156e+001  1.32542e+001  1.25083e+002
             2  1.59045e+002  2.00000e+000 -1.64187e+001  1.32539e+001  1.25167e+002
             3  1.58950e+002  3.00000e+000 -1.63879e+001  1.32535e+001  1.25250e+002
             4  1.58866e+002  4.00000e+000 -1.63747e+001  1.32531e+001  1.25333e+002
             5  1.58788e+002  5.00000e+000 -1.63748e+001  1.32527e+001  1.25417e+002
             6  1.58705e+002  6.00000e+000 -1.63946e+001  1.32524e+001  1.25500e+002
             7  1.58644e+002  7.00000e+000 -1.63668e+001  1.32523e+001  1.25583e+002
             8  1.58582e+002  8.00000e+000 -1.62729e+001  1.32522e+001  1.25667e+002
             9  1.58534e+002  9.00000e+000 -1.60821e+001  1.32523e+001  1.25750e+002
            10  1.58486e+002  1.00000e+001 -1.58061e+001  1.32525e+001  1.25833e+002
            11  1.58442e+002  1.10000e+001 -1.54463e+001  1.32531e+001  1.25917e+002
            12  1.58406e+002  1.20000e+001 -1.50703e+001  1.32535e+001  1.26000e+002
            13  1.58370e+002  1.30000e+001 -1.46907e+001  1.32538e+001  1.26083e+002
            14  1.58333e+002  1.40000e+001 -1.43221e+001  1.32541e+001  1.26167e+002
            15  1.58301e+002  1.50000e+001 -1.39557e+001  1.32543e+001  1.26250e+002
            16  1.58278e+002  1.60000e+001 -1.36045e+001  1.32545e+001  1.26333e+002
            17  1.58253e+002  1.70000e+001 -1.32642e+001  1.32546e+001  1.26417e+002
            18  1.58231e+002  1.80000e+001 -1.29297e+001  1.32547e+001  1.26500e+002
            19  1.58209e+002  1.90000e+001 -1.25773e+001  1.32545e+001  1.26583e+002
            20  1.58189e+002  2.00000e+001 -1.22227e+001  1.32544e+001  1.26667e+002
            21  1.58169e+002  2.10000e+001 -1.18715e+001  1.32543e+001  1.26750e+002
            22  1.58149e+002  2.20000e+001 -1.15230e+001  1.32542e+001  1.26833e+002
            23  1.58126e+002  2.30000e+001 -1.12236e+001  1.32540e+001  1.26917e+002
            24  1.58114e+002  2.40000e+001 -1.09092e+001  1.32538e+001  1.27000e+002
            25  1.58094e+002  2.50000e+001 -1.05929e+001  1.32537e+001  1.27083e+002
            26  1.58077e+002  2.60000e+001 -1.02939e+001  1.32535e+001  1.27167e+002
            27  1.58057e+002  2.70000e+001 -1.00567e+001  1.32534e+001  1.27250e+002
            28  1.58053e+002  2.80000e+001 -9.79092e+000  1.32533e+001  1.27333e+002
            29  1.58034e+002  2.90000e+001 -9.54204e+000  1.32532e+001  1.27417e+002
            30  1.58019e+002  3.00000e+001 -9.30412e+000  1.32531e+001  1.27500e+002
            31  1.58007e+002  3.10000e+001 -9.11076e+000  1.32531e+001  1.27583e+002
            32  1.58000e+002  3.20000e+001 -8.90341e+000  1.32530e+001  1.27667e+002
            33  1.57983e+002  3.30000e+001 -8.72742e+000  1.32530e+001  1.27750e+002
            34  1.57970e+002  3.40000e+001 -8.57523e+000  1.32529e+001  1.27833e+002
            35  1.57959e+002  3.50000e+001 -8.45608e+000  1.32528e+001  1.27917e+002
            36  1.57940e+002  3.60000e+001 -8.36910e+000  1.32527e+001  1.28000e+002
            37  1.57926e+002  3.70000e+001 -8.39935e+000  1.32526e+001  1.28083e+002
            38  1.57918e+002  3.80000e+001 -8.51134e+000  1.32526e+001  1.28167e+002
            39  1.57893e+002  3.90000e+001 -8.70853e+000  1.32524e+001  1.28250e+002
            40  1.57890e+002  4.00000e+001 -8.92359e+000  1.32524e+001  1.28333e+002
            41  1.57874e+002  4.10000e+001 -9.15396e+000  1.32523e+001  1.28417e+002
            42  1.57851e+002  4.20000e+001 -9.41212e+000  1.32523e+001  1.28500e+002
            43  1.57834e+002  4.30000e+001 -9.70977e+000  1.32523e+001  1.28583e+002
            44  1.57820e+002  4.40000e+001 -9.98917e+000  1.32523e+001  1.28667e+002
            45  1.57802e+002  4.50000e+001 -1.02617e+001  1.32523e+001  1.28750e+002
            46  1.57790e+002  4.60000e+001 -1.05342e+001  1.32523e+001  1.28833e+002
            47  1.57763e+002  4.70000e+001 -1.07989e+001  1.32524e+001  1.28917e+002
            48  1.57759e+002  4.80000e+001 -1.10555e+001  1.32524e+001  1.29000e+002
            49  1.57743e+002  4.90000e+001 -1.13100e+001  1.32524e+001  1.29083e+002
            50  1.57725e+002  5.00000e+001 -1.15637e+001  1.32524e+001  1.29167e+002
            51  1.57717e+002  5.10000e+001 -1.18107e+001  1.32524e+001  1.29250e+002
            52  1.57702e+002  5.20000e+001 -1.20692e+001  1.32524e+001  1.29333e+002
            53  1.57691e+002  5.30000e+001 -1.23318e+001  1.32524e+001  1.29417e+002
            54  1.57680e+002  5.40000e+001 -1.26017e+001  1.32524e+001  1.29500e+002
            55  1.57668e+002  5.50000e+001 -1.27926e+001  1.32524e+001  1.29583e+002
            56  1.57654e+002  5.60000e+001 -1.30180e+001  1.32524e+001  1.29667e+002
            57  1.57654e+002  5.70000e+001 -1.32438e+001  1.32525e+001  1.29750e+002
            58  1.57637e+002  5.80000e+001 -1.34767e+001  1.32525e+001  1.29833e+002
            59  1.57619e+002  5.90000e+001 -1.36438e+001  1.32526e+001  1.29917e+002
            60  1.57617e+002  6.00000e+001 -1.38432e+001  1.32526e+001  1.30000e+002
            61  1.57611e+002  6.10000e+001 -1.40366e+001  1.32526e+001  1.30083e+002
            62  1.57602e+002  6.20000e+001 -1.42068e+001  1.32527e+001  1.30167e+002
            63  1.57602e+002  6.30000e+001 -1.43285e+001  1.32527e+001  1.30250e+002
            64  1.57596e+002  6.40000e+001 -1.44871e+001  1.32527e+001  1.30333e+002
            65  1.57589e+002  6.50000e+001 -1.46339e+001  1.32526e+001  1.30417e+002
            66  1.57587e+002  6.60000e+001 -1.47681e+001  1.32526e+001  1.30500e+002
            67  1.57583e+002  6.70000e+001 -1.48792e+001  1.32526e+001  1.30583e+002
            68  1.57584e+002  6.80000e+001 -1.50162e+001  1.32526e+001  1.30667e+002
            69  1.57571e+002  6.90000e+001 -1.51482e+001  1.32526e+001  1.30750e+002
            70  1.57566e+002  7.00000e+001 -1.52696e+001  1.32526e+001  1.30833e+002
            71  1.57564e+002  7.10000e+001 -1.53379e+001  1.32525e+001  1.30917e+002
            72  1.57569e+002  7.20000e+001 -1.54337e+001  1.32525e+001  1.31000e+002
            73  1.57567e+002  7.30000e+001 -1.55358e+001  1.32525e+001  1.31083e+002
            74  1.57569e+002  7.40000e+001 -1.56394e+001  1.32525e+001  1.31167e+002
            75  1.57567e+002  7.50000e+001 -1.57343e+001  1.32525e+001  1.31250e+002
            76  1.57560e+002  7.60000e+001 -1.57750e+001  1.32524e+001  1.31333e+002
            77  1.57566e+002  7.70000e+001 -1.58452e+001  1.32524e+001  1.31417e+002
            78  1.57565e+002  7.80000e+001 -1.59219e+001  1.32524e+001  1.31500e+002
            79  1.57574e+002  7.90000e+001 -1.60032e+001  1.32523e+001  1.31583e+002
            80  1.57577e+002  8.00000e+001 -1.60447e+001  1.32523e+001  1.31667e+002
            81  1.57577e+002  8.10000e+001 -1.61030e+001  1.32523e+001  1.31750e+002
            82  1.57573e+002  8.20000e+001 -1.61643e+001  1.32522e+001  1.31833e+002
            83  1.57584e+002  8.30000e+001 -1.62253e+001  1.32522e+001  1.31917e+002
            84  1.57587e+002  8.40000e+001 -1.62655e+001  1.32522e+001  1.32000e+002
            85  1.57592e+002  8.50000e+001 -1.63132e+001  1.32522e+001  1.32083e+002
            86  1.57602e+002  8.60000e+001 -1.63605e+001  1.32521e+001  1.32167e+002
            87  1.57610e+002  8.70000e+001 -1.64074e+001  1.32521e+001  1.32250e+002
            88  1.57613e+002  8.80000e+001 -1.64372e+001  1.32521e+001  1.32333e+002
            89  1.57627e+002  8.90000e+001 -1.64729e+001  1.32521e+001  1.32417e+002
            90  1.57626e+002  9.00000e+001 -1.65095e+001  1.32521e+001  1.32500e+002
            91  1.57633e+002  9.10000e+001 -1.65461e+001  1.32521e+001  1.32583e+002
            92  1.57648e+002  9.20000e+001 -1.65710e+001  1.32521e+001  1.32667e+002
            93  1.57660e+002  9.30000e+001 -1.65998e+001  1.32521e+001  1.32750e+002
            94  1.57665e+002  9.40000e+001 -1.66280e+001  1.32521e+001  1.32833e+002
            95  1.57672e+002  9.50000e+001 -1.66541e+001  1.32521e+001  1.32917e+002
            96  1.57693e+002  9.60000e+001 -1.66669e+001  1.32521e+001  1.33000e+002
            97  1.57706e+002  9.70000e+001 -1.66865e+001  1.32521e+001  1.33083e+002
            98  1.57715e+002  9.80000e+001 -1.67072e+001  1.32521e+001  1.33167e+002
            99  1.57719e+002  9.90000e+001 -1.67278e+001  1.32520e+001  1.33250e+002
           100  1.57737e+002  1.00000e+002 -1.67429e+001  1.32520e+001  1.33333e+002
           101  1.57753e+002  1.01000e+002 -1.67604e+001  1.32520e+001  1.33417e+002
           102  1.57763e+002  1.02000e+002 -1.67771e+001  1.32519e+001  1.33500e+002
           103  1.57776e+002  1.03000e+002 -1.67937e+001  1.32519e+001  1.33583e+002
           104  1.57788e+002  1.04000e+002 -1.68004e+001  1.32518e+001  1.33667e+002
           105  1.57802e+002  1.05000e+002 -1.68099e+001  1.32517e+001  1.33750e+002
           106  1.57823e+002  1.06000e+002 -1.68218e+001  1.32517e+001  1.33833e+002
           107  1.57844e+002  1.07000e+002 -1.68340e+001  1.32516e+001  1.33917e+002
           108  1.57859e+002  1.08000e+002 -1.68433e+001  1.32516e+001  1.34000e+002
           109  1.57870e+002  1.09000e+002 -1.68529e+001  1.32516e+001  1.34083e+002
           110  1.57891e+002  1.10000e+002 -1.68626e+001  1.32516e+001  1.34167e+002
           111  1.57909e+002  1.11000e+002 -1.68732e+001  1.32516e+001  1.34250e+002
           112  1.57933e+002  1.12000e+002 -1.68791e+001  1.32517e+001  1.34333e+002
           113  1.57941e+002  1.13000e+002 -1.68879e+001  1.32517e+001  1.34417e+002
           114  1.57964e+002  1.14000e+002 -1.68965e+001  1.32518e+001  1.34500e+002
           115  1.57987e+002  1.15000e+002 -1.69045e+001  1.32519e+001  1.34583e+002
           116  1.58013e+002  1.16000e+002 -1.69130e+001  1.32519e+001  1.34667e+002
           117  1.58028e+002  1.17000e+002 -1.69217e+001  1.32519e+001  1.34750e+002
           118  1.58054e+002  1.18000e+002 -1.69305e+001  1.32519e+001  1.34833e+002
           119  1.58067e+002  1.19000e+002 -1.69395e+001  1.32518e+001  1.34917e+002
           120  1.58100e+002  1.20000e+002 -1.69476e+001  1.32516e+001  1.35000e+002
           121  1.58123e+002  1.21000e+002 -1.69553e+001  1.32515e+001  1.35083e+002
           122  1.58140e+002  1.22000e+002 -1.69614e+001  1.32514e+001  1.35167e+002
           123  1.58168e+002  1.23000e+002 -1.69663e+001  1.32513e+001  1.35250e+002
           124  1.58190e+002  1.24000e+002 -1.69695e+001  1.32512e+001  1.35333e+002
           125  1.58215e+002  1.25000e+002 -1.69743e+001  1.32512e+001  1.35417e+002
           126  1.58228e+002  1.26000e+002 -1.69775e+001  1.32511e+001  1.35500e+002
           127  1.58253e+002  1.27000e+002 -1.69789e+001  1.32511e+001  1.35583e+002
           128  1.58280e+002  1.28000e+002 -1.69806e+001  1.32511e+001  1.35667e+002
           129  1.58306e+002  1.29000e+002 -1.69829e+001  1.32511e+001  1.35750e+002
           130  1.58329e+002  1.30000e+002 -1.69846e+001  1.32511e+001  1.35833e+002
           131  1.58353e+002  1.31000e+002 -1.69853e+001  1.32511e+001  1.35917e+002
           132  1.58387e+002  1.32000e+002 -1.69808e+001  1.32512e+001  1.36000e+002
           133  1.58412e+002  1.33000e+002 -1.69795e+001  1.32513e+001  1.36083e+002
           134  1.58437e+002  1.34000e+002 -1.69794e+001  1.32513e+001  1.36167e+002
           135  1.58463e+002  1.35000e+002 -1.69796e+001  1.32514e+001  1.36250e+002
           136  1.58498e+002  1.36000e+002 -1.69756e+001  1.32515e+001  1.36333e+002
           137  1.58524e+002  1.37000e+002 -1.69737e+001  1.32516e+001  1.36417e+002
           138  1.58550e+002  1.38000e+002 -1.69727e+001  1.32516e+001  1.36500e+002
           139  1.58582e+002  1.39000e+002 -1.69720e+001  1.32517e+001  1.36583e+002
           140  1.58611e+002  1.40000e+002 -1.69697e+001  1.32517e+001  1.36667e+002
           141  1.58639e+002  1.41000e+002 -1.69689e+001  1.32517e+001  1.36750e+002
           142  1.58669e+002  1.42000e+002 -1.69677e+001  1.32516e+001  1.36833e+002
           143  1.58703e+002  1.43000e+002 -1.69660e+001  1.32516e+001  1.36917e+002
           144  1.58732e+002  1.44000e+002 -1.69641e+001  1.32516e+001  1.37000e+002
           145  1.58763e+002  1.45000e+002 -1.69640e+001  1.32515e+001  1.37083e+002
           146  1.58801e+002  1.46000e+002 -1.69642e+001  1.32514e+001  1.37167e+002
           147  1.58828e+002  1.47000e+002 -1.69631e+001  1.32513e+001  1.37250e+002
           148  1.58862e+002  1.48000e+002 -1.69618e+001  1.32513e+001  1.37333e+002
           149  1.58893e+002  1.49000e+002 -1.69607e+001  1.32512e+001  1.37417e+002
           150  1.58929e+002  1.50000e+002 -1.69602e+001  1.32512e+001  1.37500e+002
           151  1.58963e+002  1.51000e+002 -1.69590e+001  1.32511e+001  1.37583e+002
           152  1.58997e+002  1.52000e+002 -1.69588e+001  1.32511e+001  1.37667e+002
           153  1.59032e+002  1.53000e+002 -1.69588e+001  1.32511e+001  1.37750e+002
           154  1.59066e+002  1.54000e+002 -1.69595e+001  1.32511e+001  1.37833e+002
           155  1.59099e+002  1.55000e+002 -1.69609e+001  1.32511e+001  1.37917e+002
           156  1.59138e+002  1.56000e+002 -1.69633e+001  1.32511e+001  1.38000e+002
           157  1.59171e+002  1.57000e+002 -1.69625e+001  1.32511e+001  1.38083e+002
           158  1.59207e+002  1.58000e+002 -1.69619e+001  1.32510e+001  1.38167e+002
           159  1.59240e+002  1.59000e+002 -1.69622e+001  1.32510e+001  1.38250e+002
           160  1.59276e+002  1.60000e+002 -1.69624e+001  1.32510e+001  1.38333e+002
           161  1.59311e+002  1.61000e+002 -1.69630e+001  1.32510e+001  1.38417e+002
           162  1.59351e+002  1.62000e+002 -1.69627e+001  1.32509e+001  1.38500e+002
           163  1.59387e+002  1.63000e+002 -1.69636e+001  1.32509e+001  1.38583e+002
           164  1.59425e+002  1.64000e+002 -1.69643e+001  1.32509e+001  1.38667e+002
           165  1.59464e+002  1.65000e+002 -1.69634e+001  1.32509e+001  1.38750e+002
           166  1.59504e+002  1.66000e+002 -1.69635e+001  1.32508e+001  1.38833e+002
           167  1.59545e+002  1.67000e+002 -1.69647e+001  1.32508e+001  1.38917e+002
           168  1.59584e+002  1.68000e+002 -1.69664e+001  1.32508e+001  1.39000e+002
           169  1.59622e+002  1.69000e+002 -1.69665e+001  1.32509e+001  1.39083e+002
           170  1.59666e+002  1.70000e+002 -1.69678e+001  1.32509e+001  1.39167e+002
           171  1.59713e+002  1.71000e+002 -1.69716e+001  1.32509e+001  1.39250e+002
           172  1.59751e+002  1.72000e+002 -1.69763e+001  1.32509e+001  1.39333e+002
           173  1.59785e+002  1.73000e+002 -1.69857e+001  1.32510e+001  1.39417e+002
           174  1.59831e+002  1.74000e+002 -1.69934e+001  1.32510e+001  1.39500e+002
           175  1.59870e+002  1.75000e+002 -1.70020e+001  1.32510e+001  1.39583e+002
           176  1.59902e+002  1.76000e+002 -1.70117e+001  1.32511e+001  1.39667e+002
           177  1.59950e+002  1.77000e+002 -1.70292e+001  1.32511e+001  1.39750e+002
           178  1.59994e+002  1.78000e+002 -1.70443e+001  1.32511e+001  1.39833e+002
           179  1.60030e+002  1.79000e+002 -1.70599e+001  1.32511e+001  1.39917e+002
           180  1.60072e+002  1.80000e+002 -1.70772e+001  1.32511e+001  1.40000e+002
           181  1.60108e+002  1.81000e+002 -1.71069e+001  1.32510e+001  1.40083e+002
           182  1.60154e+002  1.82000e+002 -1.71356e+001  1.32510e+001  1.40167e+002
           183  1.60196e+002  1.83000e+002 -1.71632e+001  1.32510e+001  1.40250e+002
           184  1.60246e+002  1.84000e+002 -1.71856e+001  1.32509e+001  1.40333e+002
           185  1.60290e+002  1.85000e+002 -1.72436e+001  1.32509e+001  1.40417e+002
           186  1.60329e+002  1.86000e+002 -1.72751e+001  1.32508e+001  1.40500e+002
           187  1.60371e+002  1.87000e+002 -1.73024e+001  1.32508e+001  1.40583e+002
           188  1.60422e+002  1.88000e+002 -1.73457e+001  1.32508e+001  1.40667e+002
           189  1.60462e+002  1.89000e+002 -1.74181e+001  1.32508e+001  1.40750e+002
           190  1.60508e+002  1.90000e+002 -1.74764e+001  1.32508e+001  1.40833e+002
           191  1.60550e+002  1.91000e+002 -1.75480e+001  1.32508e+001  1.40917e+002
           192  1.60595e+002  1.92000e+002 -1.76317e+001  1.32508e+001  1.41000e+002
           193  1.60642e+002  1.93000e+002 -1.77536e+001  1.32508e+001  1.41083e+002
           194  1.60690e+002  1.94000e+002 -1.78423e+001  1.32507e+001  1.41167e+002
           195  1.60738e+002  1.95000e+002 -1.79389e+001  1.32507e+001  1.41250e+002
           196  1.60779e+002  1.96000e+002 -1.80407e+001  1.32506e+001  1.41333e+002
           197  1.60823e+002  1.97000e+002 -1.81727e+001  1.32504e+001  1.41417e+002
           198  1.60862e+002  1.98000e+002 -1.82852e+001  1.32503e+001  1.41500e+002
           199  1.60912e+002  1.99000e+002 -1.84013e+001  1.32502e+001  1.41583e+002
           200  1.60964e+002  2.00000e+002 -1.85129e+001  1.32501e+001  1.41667e+002
           201  1.61007e+002  2.01000e+002 -1.86870e+001  1.32500e+001  1.41750e+002
           202  1.61050e+002  2.02000e+002 -1.88265e+001  1.32499e+001  1.41833e+002
           203  1.61098e+002  2.03000e+002 -1.89692e+001  1.32498e+001  1.41917e+002
           204  1.61135e+002  2.04000e+002 -1.91152e+001  1.32498e+001  1.42000e+002
           205  1.61175e+002  2.05000e+002 -1.92995e+001  1.32498e+001  1.42083e+002
           206  1.61219e+002  2.06000e+002 -1.94645e+001  1.32498e+001  1.42167e+002
           207  1.61268e+002  2.07000e+002 -1.96279e+001  1.32498e+001  1.42250e+002
           208  1.61315e+002  2.08000e+002 -1.97923e+001  1.32499e+001  1.42333e+002
           209  1.61364e+002  2.09000e+002 -1.99782e+001  1.32500e+001  1.42417e+002
           210  1.61409e+002  2.10000e+002 -2.01559e+001  1.32501e+001  1.42500e+002
           211  1.61454e+002  2.11000e+002 -2.03322e+001  1.32502e+001  1.42583e+002
           212  1.61504e+002  2.12000e+002 -2.05104e+001  1.32503e+001  1.42667e+002
           213  1.61556e+002  2.13000e+002 -2.07062e+001  1.32505e+001  1.42750e+002
           214  1.61596e+002  2.14000e+002 -2.08951e+001  1.32506e+001  1.42833e+002
           215  1.61639e+002  2.15000e+002 -2.10839e+001  1.32507e+001  1.42917e+002
           216  1.61686e+002  2.16000e+002 -2.12742e+001  1.32508e+001  1.43000e+002
           217  1.61732e+002  2.17000e+002 -2.14827e+001  1.32508e+001  1.43083e+002
           218  1.61781e+002  2.18000e+002 -2.16836e+001  1.32509e+001  1.43167e+002
           219  1.61829e+002  2.19000e+002 -2.18846e+001  1.32509e+001  1.43250e+002
           220  1.61877e+002  2.20000e+002 -2.20862e+001  1.32510e+001  1.43333e+002
           221  1.61925e+002  2.21000e+002 -2.22993e+001  1.32510e+001  1.43417e+002
           222  1.61977e+002  2.22000e+002 -2.25059e+001  1.32510e+001  1.43500e+002
           223  1.62020e+002  2.23000e+002 -2.27055e+001  1.32510e+001  1.43583e+002
           224  1.62069e+002  2.24000e+002 -2.28979e+001  1.32510e+001  1.43667e+002
           225  1.62114e+002  2.25000e+002 -2.31100e+001  1.32510e+001  1.43750e+002
           226  1.62162e+002  2.26000e+002 -2.33162e+001  1.32510e+001  1.43833e+002
           227  1.62209e+002  2.27000e+002 -2.35283e+001  1.32510e+001  1.43917e+002
           228  1.62255e+002  2.28000e+002 -2.37540e+001  1.32510e+001  1.44000e+002
           229  1.62311e+002  2.29000e+002 -2.39645e+001  1.32509e+001  1.44083e+002
