         Index            Ts             t            HF        Weight            Tr
           [#]          [°C]           [s]          [mW]          [mg]          [°C]
             0  1.18146e+002  0.00000e+000 -1.65501e+001  1.32464e+001  9.50000e+001
             1  1.18086e+002  1.00000e+000 -1.67900e+001  1.32461e+001  9.51667e+001
             2  1.18065e+002  2.00000e+000 -1.67880e+001  1.32458e+001  9.53333e+001
             3  1.18068e+002  3.00000e+000 -1.66403e+001  1.32454e+001  9.55000e+001
             4  1.18088e+002  4.00000e+000 -1.66042e+001  1.32451e+001  9.56667e+001
             5  1.18131e+002  5.00000e+000 -1.65988e+001  1.32448e+001  9.58333e+001
             6  1.18184e+002  6.00000e+000 -1.66015e+001  1.32446e+001  9.60000e+001
             7  1.18256e+002  7.00000e+000 -1.66249e+001  1.32446e+001  9.61667e+001
             8  1.18334e+002  8.00000e+000 -1.66393e+001  1.32449e+001  9.63333e+001
             9  1.18431e+002  9.00000e+000 -1.66543e+001  1.32452e+001  9.65000e+001
            10  1.18510e+002  1.00000e+001 -1.66704e+001  1.32457e+001  9.66667e+001
            11  1.18605e+002  1.10000e+001 -1.66851e+001  1.32465e+001  9.68333e+001
            12  1.18704e+002  1.20000e+001 -1.66956e+001  1.32471e+001  9.70000e+001
            13  1.18820e+002  1.30000e+001 -1.67087e+001  1.32476e+001  9.71667e+001
            14  1.18912e+002  1.40000e+001 -1.67225e+001  1.32481e+001  9.73333e+001
            15  1.19032e+002  1.50000e+001 -1.67511e+001  1.32484e+001  9.75000e+001
            16  1.19147e+002  1.60000e+001 -1.67746e+001  1.32487e+001  9.76667e+001
            17  1.19256e+002  1.70000e+001 -1.67971e+001  1.32489e+001  9.78333e+001
            18  1.19384e+002  1.80000e+001 -1.68184e+001  1.32491e+001  9.80000e+001
            19  1.19509e+002  1.90000e+001 -1.68448e+001  1.32490e+001  9.81667e+001
            20  1.19625e+002  2.00000e+001 -1.68649e+001  1.32489e+001  9.83333e+001
            21  1.19746e+002  2.10000e+001 -1.68842e+001  1.32489e+001  9.85000e+001
            22  1.19867e+002  2.20000e+001 -1.69029e+001  1.32488e+001  9.86667e+001
            23  1.19974e+002  2.30000e+001 -1.69158e+001  1.32485e+001  9.88333e+001
            24  1.20104e+002  2.40000e+001 -1.69304e+001  1.32483e+001  9.90000e+001
            25  1.20226e+002  2.50000e+001 -1.69461e+001  1.32482e+001  9.91667e+001
            26  1.20357e+002  2.60000e+001 -1.69612e+001  1.32480e+001  9.93333e+001
            27  1.20476e+002  2.70000e+001 -1.69694e+001  1.32479e+001  9.95000e+001
            28  1.20581e+002  2.80000e+001 -1.69815e+001  1.32477e+001  9.96667e+001
            29  1.20707e+002  2.90000e+001 -1.69941e+001  1.32476e+001  9.98333e+001
            30  1.20831e+002  3.00000e+001 -1.70062e+001  1.32475e+001  1.00000e+002
            31  1.20957e+002  3.10000e+001 -1.70107e+001  1.32475e+001  1.00167e+002
            32  1.21080e+002  3.20000e+001 -1.70190e+001  1.32474e+001  1.00333e+002
            33  1.21200e+002  3.30000e+001 -1.70275e+001  1.32474e+001  1.00500e+002
            34  1.21314e+002  3.40000e+001 -1.70358e+001  1.32474e+001  1.00667e+002
            35  1.21433e+002  3.50000e+001 -1.70432e+001  1.32474e+001  1.00833e+002
            36  1.21554e+002  3.60000e+001 -1.70495e+001  1.32474e+001  1.01000e+002
            37  1.21671e+002  3.70000e+001 -1.70552e+001  1.32474e+001  1.01167e+002
            38  1.21798e+002  3.80000e+001 -1.70610e+001  1.32474e+001  1.01333e+002
            39  1.21917e+002  3.90000e+001 -1.70607e+001  1.32473e+001  1.01500e+002
            40  1.22042e+002  4.00000e+001 -1.70619e+001  1.32473e+001  1.01667e+002
            41  1.22156e+002  4.10000e+001 -1.70649e+001  1.32472e+001  1.01833e+002
            42  1.22281e+002  4.20000e+001 -1.70694e+001  1.32471e+001  1.02000e+002
            43  1.22398e+002  4.30000e+001 -1.70716e+001  1.32470e+001  1.02167e+002
            44  1.22523e+002  4.40000e+001 -1.70736e+001  1.32469e+001  1.02333e+002
            45  1.22645e+002  4.50000e+001 -1.70761e+001  1.32468e+001  1.02500e+002
            46  1.22752e+002  4.60000e+001 -1.70794e+001  1.32467e+001  1.02667e+002
            47  1.22871e+002  4.70000e+001 -1.70806e+001  1.32467e+001  1.02833e+002
            48  1.22995e+002  4.80000e+001 -1.70837e+001  1.32468e+001  1.03000e+002
            49  1.23117e+002  4.90000e+001 -1.70875e+001  1.32468e+001  1.03167e+002
            50  1.23235e+002  5.00000e+001 -1.70908e+001  1.32468e+001  1.03333e+002
            51  1.23356e+002  5.10000e+001 -1.70973e+001  1.32469e+001  1.03500e+002
            52  1.23481e+002  5.20000e+001 -1.71002e+001  1.32470e+001  1.03667e+002
            53  1.23599e+002  5.30000e+001 -1.71022e+001  1.32471e+001  1.03833e+002
            54  1.23715e+002  5.40000e+001 -1.71049e+001  1.32471e+001  1.04000e+002
            55  1.23843e+002  5.50000e+001 -1.71067e+001  1.32472e+001  1.04167e+002
            56  1.23961e+002  5.60000e+001 -1.71094e+001  1.32473e+001  1.04333e+002
            57  1.24079e+002  5.70000e+001 -1.71129e+001  1.32474e+001  1.04500e+002
            58  1.24195e+002  5.80000e+001 -1.71166e+001  1.32474e+001  1.04667e+002
            59  1.24314e+002  5.90000e+001 -1.71173e+001  1.32475e+001  1.04833e+002
            60  1.24446e+002  6.00000e+001 -1.71199e+001  1.32476e+001  1.05000e+002
            61  1.24564e+002  6.10000e+001 -1.71221e+001  1.32477e+001  1.05167e+002
            62  1.24682e+002  6.20000e+001 -1.71234e+001  1.32478e+001  1.05333e+002
            63  1.24814e+002  6.30000e+001 -1.71243e+001  1.32479e+001  1.05500e+002
            64  1.24931e+002  6.40000e+001 -1.71273e+001  1.32480e+001  1.05667e+002
            65  1.25046e+002  6.50000e+001 -1.71286e+001  1.32480e+001  1.05833e+002
            66  1.25163e+002  6.60000e+001 -1.71291e+001  1.32480e+001  1.06000e+002
            67  1.25283e+002  6.70000e+001 -1.71294e+001  1.32481e+001  1.06167e+002
            68  1.25413e+002  6.80000e+001 -1.71285e+001  1.32480e+001  1.06333e+002
            69  1.25545e+002  6.90000e+001 -1.71296e+001  1.32480e+001  1.06500e+002
            70  1.25676e+002  7.00000e+001 -1.71310e+001  1.32479e+001  1.06667e+002
            71  1.25795e+002  7.10000e+001 -1.71320e+001  1.32478e+001  1.06833e+002
            72  1.25911e+002  7.20000e+001 -1.71312e+001  1.32477e+001  1.07000e+002
            73  1.26029e+002  7.30000e+001 -1.71318e+001  1.32476e+001  1.07167e+002
            74  1.26155e+002  7.40000e+001 -1.71332e+001  1.32475e+001  1.07333e+002
            75  1.26283e+002  7.50000e+001 -1.71342e+001  1.32474e+001  1.07500e+002
            76  1.26419e+002  7.60000e+001 -1.71361e+001  1.32474e+001  1.07667e+002
            77  1.26542e+002  7.70000e+001 -1.71373e+001  1.32473e+001  1.07833e+002
            78  1.26660e+002  7.80000e+001 -1.71378e+001  1.32473e+001  1.08000e+002
            79  1.26778e+002  7.90000e+001 -1.71386e+001  1.32473e+001  1.08167e+002
            80  1.26906e+002  8.00000e+001 -1.71427e+001  1.32473e+001  1.08333e+002
            81  1.27037e+002  8.10000e+001 -1.71465e+001  1.32473e+001  1.08500e+002
            82  1.27157e+002  8.20000e+001 -1.71497e+001  1.32473e+001  1.08667e+002
            83  1.27290e+002  8.30000e+001 -1.71519e+001  1.32473e+001  1.08833e+002
            84  1.27417e+002  8.40000e+001 -1.71539e+001  1.32473e+001  1.09000e+002
            85  1.27539e+002  8.50000e+001 -1.71562e+001  1.32473e+001  1.09167e+002
            86  1.27672e+002  8.60000e+001 -1.71593e+001  1.32473e+001  1.09333e+002
            87  1.27797e+002  8.70000e+001 -1.71611e+001  1.32473e+001  1.09500e+002
            88  1.27918e+002  8.80000e+001 -1.71657e+001  1.32473e+001  1.09667e+002
            89  1.28046e+002  8.90000e+001 -1.71696e+001  1.32473e+001  1.09833e+002
            90  1.28173e+002  9.00000e+001 -1.71728e+001  1.32473e+001  1.10000e+002
            91  1.28295e+002  9.10000e+001 -1.71761e+001  1.32474e+001  1.10167e+002
            92  1.28429e+002  9.20000e+001 -1.71761e+001  1.32474e+001  1.10333e+002
            93  1.28560e+002  9.30000e+001 -1.71775e+001  1.32474e+001  1.10500e+002
            94  1.28688e+002  9.40000e+001 -1.71780e+001  1.32474e+001  1.10667e+002
            95  1.28813e+002  9.50000e+001 -1.71767e+001  1.32475e+001  1.10833e+002
            96  1.28942e+002  9.60000e+001 -1.71758e+001  1.32475e+001  1.11000e+002
            97  1.29080e+002  9.70000e+001 -1.71752e+001  1.32476e+001  1.11167e+002
            98  1.29208e+002  9.80000e+001 -1.71752e+001  1.32476e+001  1.11333e+002
            99  1.29329e+002  9.90000e+001 -1.71755e+001  1.32477e+001  1.11500e+002
           100  1.29460e+002  1.00000e+002 -1.71737e+001  1.32477e+001  1.11667e+002
           101  1.29599e+002  1.01000e+002 -1.71731e+001  1.32477e+001  1.11833e+002
           102  1.29730e+002  1.02000e+002 -1.71733e+001  1.32477e+001  1.12000e+002
           103  1.29861e+002  1.03000e+002 -1.71738e+001  1.32477e+001  1.12167e+002
           104  1.29994e+002  1.04000e+002 -1.71716e+001  1.32477e+001  1.12333e+002
           105  1.30127e+002  1.05000e+002 -1.71717e+001  1.32476e+001  1.12500e+002
           106  1.30249e+002  1.06000e+002 -1.71716e+001  1.32476e+001  1.12667e+002
           107  1.30389e+002  1.07000e+002 -1.71713e+001  1.32475e+001  1.12833e+002
           108  1.30520e+002  1.08000e+002 -1.71758e+001  1.32474e+001  1.13000e+002
           109  1.30648e+002  1.09000e+002 -1.71773e+001  1.32473e+001  1.13167e+002
           110  1.30776e+002  1.10000e+002 -1.71772e+001  1.32473e+001  1.13333e+002
           111  1.30909e+002  1.11000e+002 -1.71778e+001  1.32473e+001  1.13500e+002
           112  1.31049e+002  1.12000e+002 -1.71795e+001  1.32472e+001  1.13667e+002
           113  1.31176e+002  1.13000e+002 -1.71802e+001  1.32472e+001  1.13833e+002
           114  1.31303e+002  1.14000e+002 -1.71803e+001  1.32472e+001  1.14000e+002
           115  1.31437e+002  1.15000e+002 -1.71800e+001  1.32472e+001  1.14167e+002
           116  1.31578e+002  1.16000e+002 -1.71759e+001  1.32472e+001  1.14333e+002
           117  1.31711e+002  1.17000e+002 -1.71744e+001  1.32473e+001  1.14500e+002
           118  1.31845e+002  1.18000e+002 -1.71754e+001  1.32473e+001  1.14667e+002
           119  1.31981e+002  1.19000e+002 -1.71757e+001  1.32473e+001  1.14833e+002
           120  1.32105e+002  1.20000e+002 -1.71727e+001  1.32473e+001  1.15000e+002
           121  1.32245e+002  1.21000e+002 -1.71714e+001  1.32474e+001  1.15167e+002
           122  1.32378e+002  1.22000e+002 -1.71708e+001  1.32474e+001  1.15333e+002
           123  1.32515e+002  1.23000e+002 -1.71703e+001  1.32474e+001  1.15500e+002
           124  1.32647e+002  1.24000e+002 -1.71671e+001  1.32475e+001  1.15667e+002
           125  1.32778e+002  1.25000e+002 -1.71660e+001  1.32475e+001  1.15833e+002
           126  1.32917e+002  1.26000e+002 -1.71664e+001  1.32475e+001  1.16000e+002
           127  1.33049e+002  1.27000e+002 -1.71685e+001  1.32476e+001  1.16167e+002
           128  1.33191e+002  1.28000e+002 -1.71688e+001  1.32476e+001  1.16333e+002
           129  1.33337e+002  1.29000e+002 -1.71699e+001  1.32476e+001  1.16500e+002
           130  1.33471e+002  1.30000e+002 -1.71712e+001  1.32477e+001  1.16667e+002
           131  1.33609e+002  1.31000e+002 -1.71722e+001  1.32477e+001  1.16833e+002
           132  1.33739e+002  1.32000e+002 -1.71737e+001  1.32478e+001  1.17000e+002
           133  1.33874e+002  1.33000e+002 -1.71796e+001  1.32479e+001  1.17167e+002
           134  1.34018e+002  1.34000e+002 -1.71832e+001  1.32479e+001  1.17333e+002
           135  1.34157e+002  1.35000e+002 -1.71861e+001  1.32480e+001  1.17500e+002
           136  1.34296e+002  1.36000e+002 -1.71892e+001  1.32481e+001  1.17667e+002
           137  1.34427e+002  1.37000e+002 -1.71911e+001  1.32481e+001  1.17833e+002
           138  1.34567e+002  1.38000e+002 -1.71924e+001  1.32482e+001  1.18000e+002
           139  1.34707e+002  1.39000e+002 -1.71941e+001  1.32482e+001  1.18167e+002
           140  1.34853e+002  1.40000e+002 -1.71968e+001  1.32482e+001  1.18333e+002
           141  1.34982e+002  1.41000e+002 -1.71998e+001  1.32482e+001  1.18500e+002
           142  1.35127e+002  1.42000e+002 -1.72011e+001  1.32482e+001  1.18667e+002
           143  1.35260e+002  1.43000e+002 -1.72036e+001  1.32481e+001  1.18833e+002
           144  1.35405e+002  1.44000e+002 -1.72062e+001  1.32481e+001  1.19000e+002
           145  1.35546e+002  1.45000e+002 -1.72070e+001  1.32480e+001  1.19167e+002
           146  1.35684e+002  1.46000e+002 -1.72075e+001  1.32480e+001  1.19333e+002
           147  1.35825e+002  1.47000e+002 -1.72082e+001  1.32479e+001  1.19500e+002
           148  1.35955e+002  1.48000e+002 -1.72099e+001  1.32479e+001  1.19667e+002
           149  1.36104e+002  1.49000e+002 -1.72122e+001  1.32479e+001  1.19833e+002
           150  1.36241e+002  1.50000e+002 -1.72151e+001  1.32478e+001  1.20000e+002
           151  1.36378e+002  1.51000e+002 -1.72168e+001  1.32478e+001  1.20167e+002
           152  1.36529e+002  1.52000e+002 -1.72172e+001  1.32478e+001  1.20333e+002
           153  1.36668e+002  1.53000e+002 -1.72191e+001  1.32478e+001  1.20500e+002
           154  1.36804e+002  1.54000e+002 -1.72202e+001  1.32477e+001  1.20667e+002
           155  1.36951e+002  1.55000e+002 -1.72205e+001  1.32477e+001  1.20833e+002
           156  1.37086e+002  1.56000e+002 -1.72193e+001  1.32477e+001  1.21000e+002
           157  1.37231e+002  1.57000e+002 -1.72189e+001  1.32476e+001  1.21167e+002
           158  1.37382e+002  1.58000e+002 -1.72175e+001  1.32476e+001  1.21333e+002
           159  1.37515e+002  1.59000e+002 -1.72158e+001  1.32476e+001  1.21500e+002
           160  1.37658e+002  1.60000e+002 -1.72141e+001  1.32475e+001  1.21667e+002
           161  1.37806e+002  1.61000e+002 -1.72084e+001  1.32475e+001  1.21833e+002
           162  1.37941e+002  1.62000e+002 -1.72065e+001  1.32475e+001  1.22000e+002
           163  1.38092e+002  1.63000e+002 -1.72059e+001  1.32475e+001  1.22167e+002
           164  1.38234e+002  1.64000e+002 -1.72034e+001  1.32475e+001  1.22333e+002
           165  1.38376e+002  1.65000e+002 -1.72003e+001  1.32475e+001  1.22500e+002
           166  1.38512e+002  1.66000e+002 -1.71989e+001  1.32475e+001  1.22667e+002
           167  1.38662e+002  1.67000e+002 -1.71977e+001  1.32475e+001  1.22833e+002
           168  1.38804e+002  1.68000e+002 -1.71965e+001  1.32476e+001  1.23000e+002
           169  1.38956e+002  1.69000e+002 -1.71975e+001  1.32476e+001  1.23167e+002
           170  1.39088e+002  1.70000e+002 -1.71974e+001  1.32477e+001  1.23333e+002
           171  1.39238e+002  1.71000e+002 -1.71974e+001  1.32477e+001  1.23500e+002
           172  1.39380e+002  1.72000e+002 -1.71970e+001  1.32477e+001  1.23667e+002
           173  1.39534e+002  1.73000e+002 -1.71976e+001  1.32477e+001  1.23833e+002
           174  1.39679e+002  1.74000e+002 -1.71992e+001  1.32477e+001  1.24000e+002
           175  1.39825e+002  1.75000e+002 -1.72005e+001  1.32477e+001  1.24167e+002
           176  1.39966e+002  1.76000e+002 -1.72011e+001  1.32477e+001  1.24333e+002
           177  1.40112e+002  1.77000e+002 -1.72046e+001  1.32476e+001  1.24500e+002
           178  1.40249e+002  1.78000e+002 -1.72056e+001  1.32476e+001  1.24667e+002
           179  1.40400e+002  1.79000e+002 -1.72064e+001  1.32476e+001  1.24833e+002
           180  1.40553e+002  1.80000e+002 -1.72080e+001  1.32476e+001  1.25000e+002
           181  1.40700e+002  1.81000e+002 -1.72115e+001  1.32476e+001  1.25167e+002
           182  1.40855e+002  1.82000e+002 -1.72153e+001  1.32476e+001  1.25333e+002
           183  1.40995e+002  1.83000e+002 -1.72179e+001  1.32476e+001  1.25500e+002
           184  1.41142e+002  1.84000e+002 -1.72208e+001  1.32476e+001  1.25667e+002
           185  1.41281e+002  1.85000e+002 -1.72218e+001  1.32476e+001  1.25833e+002
           186  1.41435e+002  1.86000e+002 -1.72245e+001  1.32476e+001  1.26000e+002
           187  1.41577e+002  1.87000e+002 -1.72265e+001  1.32476e+001  1.26167e+002
           188  1.41723e+002  1.88000e+002 -1.72281e+001  1.32476e+001  1.26333e+002
           189  1.41868e+002  1.89000e+002 -1.72325e+001  1.32476e+001  1.26500e+002
           190  1.42012e+002  1.90000e+002 -1.72338e+001  1.32475e+001  1.26667e+002
           191  1.42163e+002  1.91000e+002 -1.72334e+001  1.32475e+001  1.26833e+002
           192  1.42313e+002  1.92000e+002 -1.72329e+001  1.32475e+001  1.27000e+002
           193  1.42460e+002  1.93000e+002 -1.72318e+001  1.32475e+001  1.27167e+002
           194  1.42613e+002  1.94000e+002 -1.72336e+001  1.32474e+001  1.27333e+002
           195  1.42757e+002  1.95000e+002 -1.72370e+001  1.32474e+001  1.27500e+002
           196  1.42906e+002  1.96000e+002 -1.72407e+001  1.32474e+001  1.27667e+002
           197  1.43061e+002  1.97000e+002 -1.72420e+001  1.32474e+001  1.27833e+002
           198  1.43205e+002  1.98000e+002 -1.72443e+001  1.32474e+001  1.28000e+002
           199  1.43354e+002  1.99000e+002 -1.72463e+001  1.32474e+001  1.28167e+002
           200  1.43498e+002  2.00000e+002 -1.72485e+001  1.32475e+001  1.28333e+002
           201  1.43656e+002  2.01000e+002 -1.72533e+001  1.32476e+001  1.28500e+002
           202  1.43806e+002  2.02000e+002 -1.72557e+001  1.32476e+001  1.28667e+002
           203  1.43949e+002  2.03000e+002 -1.72574e+001  1.32477e+001  1.28833e+002
           204  1.44110e+002  2.04000e+002 -1.72589e+001  1.32477e+001  1.29000e+002
           205  1.44253e+002  2.05000e+002 -1.72643e+001  1.32478e+001  1.29167e+002
           206  1.44398e+002  2.06000e+002 -1.72674e+001  1.32478e+001  1.29333e+002
           207  1.44553e+002  2.07000e+002 -1.72692e+001  1.32479e+001  1.29500e+002
           208  1.44701e+002  2.08000e+002 -1.72705e+001  1.32479e+001  1.29667e+002
           209  1.44850e+002  2.09000e+002 -1.72698e+001  1.32479e+001  1.29833e+002
           210  1.45002e+002  2.10000e+002 -1.72709e+001  1.32479e+001  1.30000e+002
           211  1.45159e+002  2.11000e+002 -1.72724e+001  1.32479e+001  1.30167e+002
           212  1.45312e+002  2.12000e+002 -1.72750e+001  1.32479e+001  1.30333e+002
           213  1.45459e+002  2.13000e+002 -1.72764e+001  1.32480e+001  1.30500e+002
           214  1.45619e+002  2.14000e+002 -1.72778e+001  1.32481e+001  1.30667e+002
           215  1.45768e+002  2.15000e+002 -1.72778e+001  1.32481e+001  1.30833e+002
           216  1.45917e+002  2.16000e+002 -1.72780e+001  1.32482e+001  1.31000e+002
           217  1.46062e+002  2.17000e+002 -1.72768e+001  1.32483e+001  1.31167e+002
           218  1.46214e+002  2.18000e+002 -1.72761e+001  1.32483e+001  1.31333e+002
           219  1.46358e+002  2.19000e+002 -1.72755e+001  1.32484e+001  1.31500e+002
           220  1.46514e+002  2.20000e+002 -1.72756e+001  1.32484e+001  1.31667e+002
           221  1.46664e+002  2.21000e+002 -1.72745e+001  1.32483e+001  1.31833e+002
           222  1.46814e+002  2.22000e+002 -1.72735e+001  1.32483e+001  1.32000e+002
           223  1.46972e+002  2.23000e+002 -1.72728e+001  1.32483e+001  1.32167e+002
           224  1.47124e+002  2.24000e+002 -1.72725e+001  1.32482e+001  1.32333e+002
           225  1.47277e+002  2.25000e+002 -1.72711e+001  1.32482e+001  1.32500e+002
           226  1.47425e+002  2.26000e+002 -1.72692e+001  1.32481e+001  1.32667e+002
           227  1.47587e+002  2.27000e+002 -1.72699e+001  1.32480e+001  1.32833e+002
           228  1.47742e+002  2.28000e+002 -1.72698e+001  1.32479e+001  1.33000e+002
           229  1.47891e+002  2.29000e+002 -1.72704e+001  1.32478e+001  1.33167e+002
