         Index            Ts             t            HF        Weight            Tr
           [#]          [°C]           [s]          [mW]          [mg]          [°C]
             0  8.56960e+002  0.00000e+000 -1.35436e+002  4.19639e+001  8.40000e+002
             1  8.56866e+002  1.00000e+000 -1.35378e+002  4.19638e+001  8.40333e+002
             2  8.57036e+002  2.00000e+000 -1.34693e+002  4.19637e+001  8.40667e+002
             3  8.57143e+002  3.00000e+000 -1.34768e+002  4.19636e+001  8.41000e+002
             4  8.57236e+002  4.00000e+000 -1.35048e+002  4.19634e+001  8.41333e+002
             5  8.57355e+002  5.00000e+000 -1.35065e+002  4.19633e+001  8.41667e+002
             6  8.57507e+002  6.00000e+000 -1.35007e+002  4.19631e+001  8.42000e+002
             7  8.57680e+002  7.00000e+000 -1.34963e+002  4.19630e+001  8.42333e+002
             8  8.57878e+002  8.00000e+000 -1.34945e+002  4.19629e+001  8.42667e+002
             9  8.58087e+002  9.00000e+000 -1.34936e+002  4.19629e+001  8.43000e+002
            10  8.58306e+002  1.00000e+001 -1.34923e+002  4.19630e+001  8.43333e+002
            11  8.58547e+002  1.10000e+001 -1.34921e+002  4.19630e+001  8.43667e+002
            12  8.58799e+002  1.20000e+001 -1.34927e+002  4.19631e+001  8.44000e+002
            13  8.59047e+002  1.30000e+001 -1.34933e+002  4.19631e+001  8.44333e+002
            14  8.59305e+002  1.40000e+001 -1.34926e+002  4.19633e+001  8.44667e+002
            15  8.59572e+002  1.50000e+001 -1.34917e+002  4.19633e+001  8.45000e+002
            16  8.59842e+002  1.60000e+001 -1.34911e+002  4.19634e+001  8.45333e+002
            17  8.60115e+002  1.70000e+001 -1.34907e+002  4.19634e+001  8.45667e+002
            18  8.60396e+002  1.80000e+001 -1.34901e+002  4.19633e+001  8.46000e+002
            19  8.60669e+002  1.90000e+001 -1.34896e+002  4.19632e+001  8.46333e+002
            20  8.60943e+002  2.00000e+001 -1.34892e+002  4.19632e+001  8.46667e+002
            21  8.61227e+002  2.10000e+001 -1.34887e+002  4.19631e+001  8.47000e+002
            22  8.61508e+002  2.20000e+001 -1.34880e+002  4.19631e+001  8.47333e+002
            23  8.61795e+002  2.30000e+001 -1.34874e+002  4.19631e+001  8.47667e+002
            24  8.62074e+002  2.40000e+001 -1.34870e+002  4.19631e+001  8.48000e+002
            25  8.62357e+002  2.50000e+001 -1.34866e+002  4.19631e+001  8.48333e+002
            26  8.62638e+002  2.60000e+001 -1.34862e+002  4.19631e+001  8.48667e+002
            27  8.62922e+002  2.70000e+001 -1.34859e+002  4.19631e+001  8.49000e+002
            28  8.63199e+002  2.80000e+001 -1.34856e+002  4.19631e+001  8.49333e+002
            29  8.63475e+002  2.90000e+001 -1.34853e+002  4.19631e+001  8.49667e+002
            30  8.63758e+002  3.00000e+001 -1.34851e+002  4.19631e+001  8.50000e+002
            31  8.64043e+002  3.10000e+001 -1.34850e+002  4.19630e+001  8.50333e+002
            32  8.64324e+002  3.20000e+001 -1.34851e+002  4.19630e+001  8.50667e+002
            33  8.64605e+002  3.30000e+001 -1.34851e+002  4.19630e+001  8.51000e+002
            34  8.64879e+002  3.40000e+001 -1.34856e+002  4.19630e+001  8.51333e+002
            35  8.65160e+002  3.50000e+001 -1.34858e+002  4.19630e+001  8.51667e+002
            36  8.65438e+002  3.60000e+001 -1.34859e+002  4.19630e+001  8.52000e+002
            37  8.65719e+002  3.70000e+001 -1.34858e+002  4.19630e+001  8.52333e+002
            38  8.66000e+002  3.80000e+001 -1.34858e+002  4.19630e+001  8.52667e+002
            39  8.66282e+002  3.90000e+001 -1.34857e+002  4.19629e+001  8.53000e+002
            40  8.66560e+002  4.00000e+001 -1.34856e+002  4.19629e+001  8.53333e+002
            41  8.66836e+002  4.10000e+001 -1.34854e+002  4.19629e+001  8.53667e+002
            42  8.67118e+002  4.20000e+001 -1.34850e+002  4.19628e+001  8.54000e+002
            43  8.67392e+002  4.30000e+001 -1.34846e+002  4.19628e+001  8.54333e+002
            44  8.67674e+002  4.40000e+001 -1.34842e+002  4.19627e+001  8.54667e+002
            45  8.67955e+002  4.50000e+001 -1.34838e+002  4.19627e+001  8.55000e+002
            46  8.68235e+002  4.60000e+001 -1.34827e+002  4.19627e+001  8.55333e+002
            47  8.68512e+002  4.70000e+001 -1.34818e+002  4.19627e+001  8.55667e+002
            48  8.68790e+002  4.80000e+001 -1.34809e+002  4.19627e+001  8.56000e+002
            49  8.69067e+002  4.90000e+001 -1.34800e+002  4.19627e+001  8.56333e+002
            50  8.69351e+002  5.00000e+001 -1.34789e+002  4.19627e+001  8.56667e+002
            51  8.69626e+002  5.10000e+001 -1.34780e+002  4.19627e+001  8.57000e+002
            52  8.69897e+002  5.20000e+001 -1.34770e+002  4.19627e+001  8.57333e+002
            53  8.70185e+002  5.30000e+001 -1.34762e+002  4.19627e+001  8.57667e+002
            54  8.70461e+002  5.40000e+001 -1.34751e+002  4.19627e+001  8.58000e+002
            55  8.70742e+002  5.50000e+001 -1.34739e+002  4.19627e+001  8.58333e+002
            56  8.71030e+002  5.60000e+001 -1.34728e+002  4.19628e+001  8.58667e+002
            57  8.71311e+002  5.70000e+001 -1.34717e+002  4.19628e+001  8.59000e+002
            58  8.71594e+002  5.80000e+001 -1.34708e+002  4.19628e+001  8.59333e+002
            59  8.71875e+002  5.90000e+001 -1.34698e+002  4.19628e+001  8.59667e+002
            60  8.72152e+002  6.00000e+001 -1.34689e+002  4.19628e+001  8.60000e+002
            61  8.72441e+002  6.10000e+001 -1.34680e+002  4.19628e+001  8.60333e+002
            62  8.72722e+002  6.20000e+001 -1.34675e+002  4.19627e+001  8.60667e+002
            63  8.73001e+002  6.30000e+001 -1.34670e+002  4.19627e+001  8.61000e+002
            64  8.73284e+002  6.40000e+001 -1.34665e+002  4.19627e+001  8.61333e+002
            65  8.73569e+002  6.50000e+001 -1.34662e+002  4.19626e+001  8.61667e+002
            66  8.73854e+002  6.60000e+001 -1.34663e+002  4.19626e+001  8.62000e+002
            67  8.74139e+002  6.70000e+001 -1.34663e+002  4.19626e+001  8.62333e+002
            68  8.74421e+002  6.80000e+001 -1.34662e+002  4.19625e+001  8.62667e+002
            69  8.74699e+002  6.90000e+001 -1.34662e+002  4.19625e+001  8.63000e+002
            70  8.74987e+002  7.00000e+001 -1.34666e+002  4.19624e+001  8.63333e+002
            71  8.75275e+002  7.10000e+001 -1.34665e+002  4.19624e+001  8.63667e+002
            72  8.75566e+002  7.20000e+001 -1.34664e+002  4.19623e+001  8.64000e+002
            73  8.75855e+002  7.30000e+001 -1.34663e+002  4.19623e+001  8.64333e+002
            74  8.76143e+002  7.40000e+001 -1.34665e+002  4.19622e+001  8.64667e+002
            75  8.76433e+002  7.50000e+001 -1.34665e+002  4.19622e+001  8.65000e+002
            76  8.76722e+002  7.60000e+001 -1.34662e+002  4.19622e+001  8.65333e+002
            77  8.77008e+002  7.70000e+001 -1.34659e+002  4.19622e+001  8.65667e+002
            78  8.77301e+002  7.80000e+001 -1.34653e+002  4.19622e+001  8.66000e+002
            79  8.77591e+002  7.90000e+001 -1.34648e+002  4.19623e+001  8.66333e+002
            80  8.77881e+002  8.00000e+001 -1.34643e+002  4.19623e+001  8.66667e+002
            81  8.78173e+002  8.10000e+001 -1.34639e+002  4.19622e+001  8.67000e+002
            82  8.78466e+002  8.20000e+001 -1.34633e+002  4.19622e+001  8.67333e+002
            83  8.78761e+002  8.30000e+001 -1.34625e+002  4.19622e+001  8.67667e+002
            84  8.79045e+002  8.40000e+001 -1.34619e+002  4.19622e+001  8.68000e+002
            85  8.79336e+002  8.50000e+001 -1.34614e+002  4.19623e+001  8.68333e+002
            86  8.79635e+002  8.60000e+001 -1.34606e+002  4.19623e+001  8.68667e+002
            87  8.79935e+002  8.70000e+001 -1.34598e+002  4.19623e+001  8.69000e+002
            88  8.80227e+002  8.80000e+001 -1.34590e+002  4.19624e+001  8.69333e+002
            89  8.80519e+002  8.90000e+001 -1.34583e+002  4.19624e+001  8.69667e+002
            90  8.80813e+002  9.00000e+001 -1.34576e+002  4.19624e+001  8.70000e+002
            91  8.81111e+002  9.10000e+001 -1.34570e+002  4.19625e+001  8.70333e+002
            92  8.81406e+002  9.20000e+001 -1.34563e+002  4.19625e+001  8.70667e+002
            93  8.81703e+002  9.30000e+001 -1.34558e+002  4.19625e+001  8.71000e+002
            94  8.82002e+002  9.40000e+001 -1.34557e+002  4.19626e+001  8.71333e+002
            95  8.82298e+002  9.50000e+001 -1.34554e+002  4.19626e+001  8.71667e+002
            96  8.82597e+002  9.60000e+001 -1.34550e+002  4.19627e+001  8.72000e+002
            97  8.82893e+002  9.70000e+001 -1.34547e+002  4.19627e+001  8.72333e+002
            98  8.83192e+002  9.80000e+001 -1.34545e+002  4.19627e+001  8.72667e+002
            99  8.83492e+002  9.90000e+001 -1.34541e+002  4.19628e+001  8.73000e+002
           100  8.83790e+002  1.00000e+002 -1.34536e+002  4.19628e+001  8.73333e+002
           101  8.84091e+002  1.01000e+002 -1.34534e+002  4.19628e+001  8.73667e+002
           102  8.84391e+002  1.02000e+002 -1.34532e+002  4.19628e+001  8.74000e+002
           103  8.84697e+002  1.03000e+002 -1.34534e+002  4.19627e+001  8.74333e+002
           104  8.84984e+002  1.04000e+002 -1.34534e+002  4.19627e+001  8.74667e+002
           105  8.85288e+002  1.05000e+002 -1.34535e+002  4.19626e+001  8.75000e+002
           106  8.85589e+002  1.06000e+002 -1.34537e+002  4.19626e+001  8.75333e+002
           107  8.85888e+002  1.07000e+002 -1.34539e+002  4.19625e+001  8.75667e+002
           108  8.86193e+002  1.08000e+002 -1.34542e+002  4.19625e+001  8.76000e+002
           109  8.86499e+002  1.09000e+002 -1.34545e+002  4.19624e+001  8.76333e+002
           110  8.86801e+002  1.10000e+002 -1.34548e+002  4.19624e+001  8.76667e+002
           111  8.87096e+002  1.11000e+002 -1.34560e+002  4.19624e+001  8.77000e+002
           112  8.87401e+002  1.12000e+002 -1.34566e+002  4.19624e+001  8.77333e+002
           113  8.87707e+002  1.13000e+002 -1.34570e+002  4.19624e+001  8.77667e+002
           114  8.88012e+002  1.14000e+002 -1.34573e+002  4.19625e+001  8.78000e+002
           115  8.88312e+002  1.15000e+002 -1.34577e+002  4.19625e+001  8.78333e+002
           116  8.88615e+002  1.16000e+002 -1.34578e+002  4.19625e+001  8.78667e+002
           117  8.88926e+002  1.17000e+002 -1.34578e+002  4.19625e+001  8.79000e+002
           118  8.89232e+002  1.18000e+002 -1.34578e+002  4.19625e+001  8.79333e+002
           119  8.89541e+002  1.19000e+002 -1.34572e+002  4.19625e+001  8.79667e+002
           120  8.89843e+002  1.20000e+002 -1.34568e+002  4.19625e+001  8.80000e+002
           121  8.90144e+002  1.21000e+002 -1.34563e+002  4.19625e+001  8.80333e+002
           122  8.90453e+002  1.22000e+002 -1.34558e+002  4.19625e+001  8.80667e+002
           123  8.90757e+002  1.23000e+002 -1.34546e+002  4.19625e+001  8.81000e+002
           124  8.91068e+002  1.24000e+002 -1.34539e+002  4.19626e+001  8.81333e+002
           125  8.91376e+002  1.25000e+002 -1.34532e+002  4.19626e+001  8.81667e+002
           126  8.91683e+002  1.26000e+002 -1.34525e+002  4.19627e+001  8.82000e+002
           127  8.91983e+002  1.27000e+002 -1.34517e+002  4.19627e+001  8.82333e+002
           128  8.92292e+002  1.28000e+002 -1.34512e+002  4.19628e+001  8.82667e+002
           129  8.92600e+002  1.29000e+002 -1.34508e+002  4.19628e+001  8.83000e+002
           130  8.92905e+002  1.30000e+002 -1.34505e+002  4.19628e+001  8.83333e+002
           131  8.93213e+002  1.31000e+002 -1.34504e+002  4.19628e+001  8.83667e+002
           132  8.93524e+002  1.32000e+002 -1.34502e+002  4.19629e+001  8.84000e+002
           133  8.93834e+002  1.33000e+002 -1.34500e+002  4.19629e+001  8.84333e+002
           134  8.94137e+002  1.34000e+002 -1.34499e+002  4.19629e+001  8.84667e+002
           135  8.94444e+002  1.35000e+002 -1.34503e+002  4.19628e+001  8.85000e+002
           136  8.94754e+002  1.36000e+002 -1.34504e+002  4.19628e+001  8.85333e+002
           137  8.95060e+002  1.37000e+002 -1.34504e+002  4.19628e+001  8.85667e+002
           138  8.95376e+002  1.38000e+002 -1.34504e+002  4.19627e+001  8.86000e+002
           139  8.95685e+002  1.39000e+002 -1.34511e+002  4.19627e+001  8.86333e+002
           140  8.95992e+002  1.40000e+002 -1.34515e+002  4.19626e+001  8.86667e+002
           141  8.96299e+002  1.41000e+002 -1.34518e+002  4.19626e+001  8.87000e+002
           142  8.96613e+002  1.42000e+002 -1.34522e+002  4.19626e+001  8.87333e+002
           143  8.96926e+002  1.43000e+002 -1.34526e+002  4.19626e+001  8.87667e+002
           144  8.97233e+002  1.44000e+002 -1.34531e+002  4.19626e+001  8.88000e+002
           145  8.97544e+002  1.45000e+002 -1.34536e+002  4.19626e+001  8.88333e+002
           146  8.97855e+002  1.46000e+002 -1.34541e+002  4.19626e+001  8.88667e+002
           147  8.98168e+002  1.47000e+002 -1.34549e+002  4.19625e+001  8.89000e+002
           148  8.98475e+002  1.48000e+002 -1.34554e+002  4.19625e+001  8.89333e+002
           149  8.98790e+002  1.49000e+002 -1.34557e+002  4.19625e+001  8.89667e+002
           150  8.99097e+002  1.50000e+002 -1.34560e+002  4.19624e+001  8.90000e+002
           151  8.99406e+002  1.51000e+002 -1.34562e+002  4.19623e+001  8.90333e+002
           152  8.99716e+002  1.52000e+002 -1.34563e+002  4.19623e+001  8.90667e+002
           153  9.00032e+002  1.53000e+002 -1.34563e+002  4.19623e+001  8.91000e+002
           154  9.00352e+002  1.54000e+002 -1.34562e+002  4.19623e+001  8.91333e+002
           155  9.00664e+002  1.55000e+002 -1.34557e+002  4.19623e+001  8.91667e+002
           156  9.00970e+002  1.56000e+002 -1.34554e+002  4.19623e+001  8.92000e+002
           157  9.01281e+002  1.57000e+002 -1.34549e+002  4.19623e+001  8.92333e+002
           158  9.01596e+002  1.58000e+002 -1.34543e+002  4.19623e+001  8.92667e+002
           159  9.01911e+002  1.59000e+002 -1.34528e+002  4.19623e+001  8.93000e+002
           160  9.02224e+002  1.60000e+002 -1.34518e+002  4.19623e+001  8.93333e+002
           161  9.02536e+002  1.61000e+002 -1.34510e+002  4.19623e+001  8.93667e+002
           162  9.02848e+002  1.62000e+002 -1.34502e+002  4.19624e+001  8.94000e+002
           163  9.03162e+002  1.63000e+002 -1.34490e+002  4.19624e+001  8.94333e+002
           164  9.03477e+002  1.64000e+002 -1.34480e+002  4.19625e+001  8.94667e+002
           165  9.03795e+002  1.65000e+002 -1.34471e+002  4.19625e+001  8.95000e+002
           166  9.04107e+002  1.66000e+002 -1.34464e+002  4.19626e+001  8.95333e+002
           167  9.04420e+002  1.67000e+002 -1.34454e+002  4.19627e+001  8.95667e+002
           168  9.04735e+002  1.68000e+002 -1.34448e+002  4.19628e+001  8.96000e+002
           169  9.05048e+002  1.69000e+002 -1.34444e+002  4.19628e+001  8.96333e+002
           170  9.05366e+002  1.70000e+002 -1.34441e+002  4.19629e+001  8.96667e+002
           171  9.05677e+002  1.71000e+002 -1.34444e+002  4.19629e+001  8.97000e+002
           172  9.05989e+002  1.72000e+002 -1.34443e+002  4.19629e+001  8.97333e+002
           173  9.06307e+002  1.73000e+002 -1.34442e+002  4.19629e+001  8.97667e+002
           174  9.06620e+002  1.74000e+002 -1.34441e+002  4.19629e+001  8.98000e+002
           175  9.06937e+002  1.75000e+002 -1.34452e+002  4.19628e+001  8.98333e+002
           176  9.07246e+002  1.76000e+002 -1.34457e+002  4.19628e+001  8.98667e+002
           177  9.07562e+002  1.77000e+002 -1.34462e+002  4.19627e+001  8.99000e+002
           178  9.07880e+002  1.78000e+002 -1.34466e+002  4.19627e+001  8.99333e+002
           179  9.08193e+002  1.79000e+002 -1.34476e+002  4.19626e+001  8.99667e+002
           180  9.08510e+002  1.80000e+002 -1.34485e+002  4.19625e+001  9.00000e+002
           181  9.08827e+002  1.81000e+002 -1.34493e+002  4.19624e+001  9.00333e+002
           182  9.09145e+002  1.82000e+002 -1.34499e+002  4.19624e+001  9.00667e+002
           183  9.09464e+002  1.83000e+002 -1.34511e+002  4.19624e+001  9.01000e+002
           184  9.09779e+002  1.84000e+002 -1.34520e+002  4.19623e+001  9.01333e+002
           185  9.10090e+002  1.85000e+002 -1.34527e+002  4.19623e+001  9.01667e+002
           186  9.10408e+002  1.86000e+002 -1.34534e+002  4.19623e+001  9.02000e+002
           187  9.10723e+002  1.87000e+002 -1.34539e+002  4.19623e+001  9.02333e+002
           188  9.11044e+002  1.88000e+002 -1.34543e+002  4.19623e+001  9.02667e+002
           189  9.11355e+002  1.89000e+002 -1.34547e+002  4.19623e+001  9.03000e+002
           190  9.11675e+002  1.90000e+002 -1.34550e+002  4.19622e+001  9.03333e+002
           191  9.11993e+002  1.91000e+002 -1.34549e+002  4.19622e+001  9.03667e+002
           192  9.12311e+002  1.92000e+002 -1.34550e+002  4.19622e+001  9.04000e+002
           193  9.12625e+002  1.93000e+002 -1.34553e+002  4.19623e+001  9.04333e+002
           194  9.12940e+002  1.94000e+002 -1.34557e+002  4.19623e+001  9.04667e+002
           195  9.13262e+002  1.95000e+002 -1.34555e+002  4.19624e+001  9.05000e+002
           196  9.13578e+002  1.96000e+002 -1.34556e+002  4.19625e+001  9.05333e+002
           197  9.13899e+002  1.97000e+002 -1.34557e+002  4.19625e+001  9.05667e+002
           198  9.14215e+002  1.98000e+002 -1.34559e+002  4.19626e+001  9.06000e+002
           199  9.14526e+002  1.99000e+002 -1.34560e+002  4.19627e+001  9.06333e+002
           200  9.14845e+002  2.00000e+002 -1.34562e+002  4.19627e+001  9.06667e+002
           201  9.15162e+002  2.01000e+002 -1.34564e+002  4.19627e+001  9.07000e+002
           202  9.15480e+002  2.02000e+002 -1.34565e+002  4.19628e+001  9.07333e+002
           203  9.15798e+002  2.03000e+002 -1.34567e+002  4.19628e+001  9.07667e+002
           204  9.16117e+002  2.04000e+002 -1.34567e+002  4.19627e+001  9.08000e+002
           205  9.16434e+002  2.05000e+002 -1.34567e+002  4.19627e+001  9.08333e+002
           206  9.16750e+002  2.06000e+002 -1.34565e+002  4.19627e+001  9.08667e+002
           207  9.17070e+002  2.07000e+002 -1.34564e+002  4.19627e+001  9.09000e+002
           208  9.17387e+002  2.08000e+002 -1.34561e+002  4.19626e+001  9.09333e+002
           209  9.17703e+002  2.09000e+002 -1.34558e+002  4.19626e+001  9.09667e+002
           210  9.18026e+002  2.10000e+002 -1.34558e+002  4.19626e+001  9.10000e+002
           211  9.18342e+002  2.11000e+002 -1.34558e+002  4.19626e+001  9.10333e+002
           212  9.18662e+002  2.12000e+002 -1.34556e+002  4.19626e+001  9.10667e+002
           213  9.18986e+002  2.13000e+002 -1.34555e+002  4.19626e+001  9.11000e+002
           214  9.19304e+002  2.14000e+002 -1.34556e+002  4.19627e+001  9.11333e+002
           215  9.19624e+002  2.15000e+002 -1.34557e+002  4.19627e+001  9.11667e+002
           216  9.19940e+002  2.16000e+002 -1.34562e+002  4.19627e+001  9.12000e+002
           217  9.20267e+002  2.17000e+002 -1.34566e+002  4.19627e+001  9.12333e+002
           218  9.20582e+002  2.18000e+002 -1.34571e+002  4.19628e+001  9.12667e+002
           219  9.20902e+002  2.19000e+002 -1.34575e+002  4.19628e+001  9.13000e+002
           220  9.21225e+002  2.20000e+002 -1.34584e+002  4.19628e+001  9.13333e+002
           221  9.21544e+002  2.21000e+002 -1.34588e+002  4.19628e+001  9.13667e+002
           222  9.21859e+002  2.22000e+002 -1.34591e+002  4.19627e+001  9.14000e+002
           223  9.22182e+002  2.23000e+002 -1.34593e+002  4.19627e+001  9.14333e+002
           224  9.22504e+002  2.24000e+002 -1.34600e+002  4.19626e+001  9.14667e+002
           225  9.22817e+002  2.25000e+002 -1.34603e+002  4.19626e+001  9.15000e+002
           226  9.23135e+002  2.26000e+002 -1.34607e+002  4.19625e+001  9.15333e+002
           227  9.23453e+002  2.27000e+002 -1.34611e+002  4.19625e+001  9.15667e+002
           228  9.23780e+002  2.28000e+002 -1.34607e+002  4.19625e+001  9.16000e+002
           229  9.24096e+002  2.29000e+002 -1.34608e+002  4.19625e+001  9.16333e+002
