         Index            Ts             t            HF        Weight            Tr
           [#]          [°C]           [s]          [mW]          [mg]          [°C]
             0  9.55756e+002  0.00000e+000 -1.37454e+002  4.19540e+001  9.50000e+002
             1  9.55841e+002  1.00000e+000 -1.36858e+002  4.19540e+001  9.50167e+002
             2  9.56036e+002  2.00000e+000 -1.36064e+002  4.19539e+001  9.50333e+002
             3  9.56158e+002  3.00000e+000 -1.36562e+002  4.19539e+001  9.50500e+002
             4  9.56293e+002  4.00000e+000 -1.36641e+002  4.19538e+001  9.50667e+002
             5  9.56436e+002  5.00000e+000 -1.36623e+002  4.19538e+001  9.50833e+002
             6  9.56594e+002  6.00000e+000 -1.36584e+002  4.19538e+001  9.51000e+002
             7  9.56751e+002  7.00000e+000 -1.36518e+002  4.19538e+001  9.51167e+002
             8  9.56920e+002  8.00000e+000 -1.36471e+002  4.19538e+001  9.51333e+002
             9  9.57095e+002  9.00000e+000 -1.36435e+002  4.19539e+001  9.51500e+002
            10  9.57278e+002  1.00000e+001 -1.36402e+002  4.19539e+001  9.51667e+002
            11  9.57461e+002  1.10000e+001 -1.36378e+002  4.19539e+001  9.51833e+002
            12  9.57651e+002  1.20000e+001 -1.36360e+002  4.19540e+001  9.52000e+002
            13  9.57842e+002  1.30000e+001 -1.36339e+002  4.19540e+001  9.52167e+002
            14  9.58039e+002  1.40000e+001 -1.36312e+002  4.19540e+001  9.52333e+002
            15  9.58234e+002  1.50000e+001 -1.36291e+002  4.19540e+001  9.52500e+002
            16  9.58429e+002  1.60000e+001 -1.36297e+002  4.19539e+001  9.52667e+002
            17  9.58627e+002  1.70000e+001 -1.36288e+002  4.19539e+001  9.52833e+002
            18  9.58818e+002  1.80000e+001 -1.36277e+002  4.19539e+001  9.53000e+002
            19  9.59009e+002  1.90000e+001 -1.36266e+002  4.19539e+001  9.53167e+002
            20  9.59211e+002  2.00000e+001 -1.36270e+002  4.19539e+001  9.53333e+002
            21  9.59406e+002  2.10000e+001 -1.36263e+002  4.19539e+001  9.53500e+002
            22  9.59604e+002  2.20000e+001 -1.36255e+002  4.19539e+001  9.53667e+002
            23  9.59796e+002  2.30000e+001 -1.36249e+002  4.19539e+001  9.53833e+002
            24  9.59990e+002  2.40000e+001 -1.36247e+002  4.19539e+001  9.54000e+002
            25  9.60180e+002  2.50000e+001 -1.36244e+002  4.19539e+001  9.54167e+002
            26  9.60371e+002  2.60000e+001 -1.36243e+002  4.19539e+001  9.54333e+002
            27  9.60562e+002  2.70000e+001 -1.36243e+002  4.19540e+001  9.54500e+002
            28  9.60748e+002  2.80000e+001 -1.36241e+002  4.19540e+001  9.54667e+002
            29  9.60938e+002  2.90000e+001 -1.36241e+002  4.19541e+001  9.54833e+002
            30  9.61120e+002  3.00000e+001 -1.36242e+002  4.19541e+001  9.55000e+002
            31  9.61308e+002  3.10000e+001 -1.36243e+002  4.19541e+001  9.55167e+002
            32  9.61491e+002  3.20000e+001 -1.36255e+002  4.19541e+001  9.55333e+002
            33  9.61677e+002  3.30000e+001 -1.36260e+002  4.19541e+001  9.55500e+002
            34  9.61865e+002  3.40000e+001 -1.36263e+002  4.19541e+001  9.55667e+002
            35  9.62040e+002  3.50000e+001 -1.36267e+002  4.19541e+001  9.55833e+002
            36  9.62222e+002  3.60000e+001 -1.36273e+002  4.19540e+001  9.56000e+002
            37  9.62400e+002  3.70000e+001 -1.36275e+002  4.19540e+001  9.56167e+002
            38  9.62582e+002  3.80000e+001 -1.36278e+002  4.19540e+001  9.56333e+002
            39  9.62763e+002  3.90000e+001 -1.36280e+002  4.19540e+001  9.56500e+002
            40  9.62934e+002  4.00000e+001 -1.36283e+002  4.19540e+001  9.56667e+002
            41  9.63114e+002  4.10000e+001 -1.36285e+002  4.19540e+001  9.56833e+002
            42  9.63287e+002  4.20000e+001 -1.36286e+002  4.19540e+001  9.57000e+002
            43  9.63466e+002  4.30000e+001 -1.36286e+002  4.19540e+001  9.57167e+002
            44  9.63643e+002  4.40000e+001 -1.36284e+002  4.19540e+001  9.57333e+002
            45  9.63810e+002  4.50000e+001 -1.36284e+002  4.19540e+001  9.57500e+002
            46  9.63983e+002  4.60000e+001 -1.36283e+002  4.19540e+001  9.57667e+002
            47  9.64156e+002  4.70000e+001 -1.36283e+002  4.19539e+001  9.57833e+002
            48  9.64325e+002  4.80000e+001 -1.36280e+002  4.19539e+001  9.58000e+002
            49  9.64497e+002  4.90000e+001 -1.36277e+002  4.19539e+001  9.58167e+002
            50  9.64671e+002  5.00000e+001 -1.36274e+002  4.19539e+001  9.58333e+002
            51  9.64839e+002  5.10000e+001 -1.36271e+002  4.19539e+001  9.58500e+002
            52  9.65013e+002  5.20000e+001 -1.36268e+002  4.19540e+001  9.58667e+002
            53  9.65177e+002  5.30000e+001 -1.36266e+002  4.19540e+001  9.58833e+002
            54  9.65348e+002  5.40000e+001 -1.36263e+002  4.19540e+001  9.59000e+002
            55  9.65515e+002  5.50000e+001 -1.36260e+002  4.19541e+001  9.59167e+002
            56  9.65681e+002  5.60000e+001 -1.36258e+002  4.19541e+001  9.59333e+002
            57  9.65848e+002  5.70000e+001 -1.36256e+002  4.19542e+001  9.59500e+002
            58  9.66018e+002  5.80000e+001 -1.36254e+002  4.19543e+001  9.59667e+002
            59  9.66187e+002  5.90000e+001 -1.36252e+002  4.19543e+001  9.59833e+002
            60  9.66357e+002  6.00000e+001 -1.36252e+002  4.19544e+001  9.60000e+002
            61  9.66517e+002  6.10000e+001 -1.36253e+002  4.19544e+001  9.60167e+002
            62  9.66687e+002  6.20000e+001 -1.36254e+002  4.19544e+001  9.60333e+002
            63  9.66856e+002  6.30000e+001 -1.36256e+002  4.19545e+001  9.60500e+002
            64  9.67016e+002  6.40000e+001 -1.36259e+002  4.19544e+001  9.60667e+002
            65  9.67187e+002  6.50000e+001 -1.36262e+002  4.19544e+001  9.60833e+002
            66  9.67351e+002  6.60000e+001 -1.36264e+002  4.19544e+001  9.61000e+002
            67  9.67513e+002  6.70000e+001 -1.36265e+002  4.19544e+001  9.61167e+002
            68  9.67677e+002  6.80000e+001 -1.36269e+002  4.19544e+001  9.61333e+002
            69  9.67842e+002  6.90000e+001 -1.36271e+002  4.19544e+001  9.61500e+002
            70  9.68004e+002  7.00000e+001 -1.36274e+002  4.19543e+001  9.61667e+002
            71  9.68166e+002  7.10000e+001 -1.36277e+002  4.19543e+001  9.61833e+002
            72  9.68334e+002  7.20000e+001 -1.36282e+002  4.19543e+001  9.62000e+002
            73  9.68497e+002  7.30000e+001 -1.36286e+002  4.19542e+001  9.62167e+002
            74  9.68665e+002  7.40000e+001 -1.36291e+002  4.19542e+001  9.62333e+002
            75  9.68829e+002  7.50000e+001 -1.36296e+002  4.19542e+001  9.62500e+002
            76  9.68992e+002  7.60000e+001 -1.36298e+002  4.19541e+001  9.62667e+002
            77  9.69155e+002  7.70000e+001 -1.36302e+002  4.19541e+001  9.62833e+002
            78  9.69319e+002  7.80000e+001 -1.36308e+002  4.19540e+001  9.63000e+002
            79  9.69483e+002  7.90000e+001 -1.36313e+002  4.19540e+001  9.63167e+002
            80  9.69652e+002  8.00000e+001 -1.36317e+002  4.19540e+001  9.63333e+002
            81  9.69811e+002  8.10000e+001 -1.36325e+002  4.19539e+001  9.63500e+002
            82  9.69975e+002  8.20000e+001 -1.36330e+002  4.19539e+001  9.63667e+002
            83  9.70137e+002  8.30000e+001 -1.36333e+002  4.19539e+001  9.63833e+002
            84  9.70307e+002  8.40000e+001 -1.36337e+002  4.19539e+001  9.64000e+002
            85  9.70468e+002  8.50000e+001 -1.36341e+002  4.19539e+001  9.64167e+002
            86  9.70630e+002  8.60000e+001 -1.36346e+002  4.19539e+001  9.64333e+002
            87  9.70793e+002  8.70000e+001 -1.36352e+002  4.19539e+001  9.64500e+002
            88  9.70953e+002  8.80000e+001 -1.36357e+002  4.19540e+001  9.64667e+002
            89  9.71121e+002  8.90000e+001 -1.36358e+002  4.19540e+001  9.64833e+002
            90  9.71284e+002  9.00000e+001 -1.36362e+002  4.19541e+001  9.65000e+002
            91  9.71444e+002  9.10000e+001 -1.36367e+002  4.19541e+001  9.65167e+002
            92  9.71608e+002  9.20000e+001 -1.36373e+002  4.19541e+001  9.65333e+002
            93  9.71771e+002  9.30000e+001 -1.36381e+002  4.19542e+001  9.65500e+002
            94  9.71934e+002  9.40000e+001 -1.36385e+002  4.19542e+001  9.65667e+002
            95  9.72101e+002  9.50000e+001 -1.36390e+002  4.19542e+001  9.65833e+002
            96  9.72258e+002  9.60000e+001 -1.36396e+002  4.19542e+001  9.66000e+002
            97  9.72414e+002  9.70000e+001 -1.36401e+002  4.19542e+001  9.66167e+002
            98  9.72579e+002  9.80000e+001 -1.36407e+002  4.19541e+001  9.66333e+002
            99  9.72742e+002  9.90000e+001 -1.36412e+002  4.19541e+001  9.66500e+002
           100  9.72905e+002  1.00000e+002 -1.36418e+002  4.19541e+001  9.66667e+002
           101  9.73067e+002  1.01000e+002 -1.36426e+002  4.19541e+001  9.66833e+002
           102  9.73229e+002  1.02000e+002 -1.36434e+002  4.19541e+001  9.67000e+002
           103  9.73392e+002  1.03000e+002 -1.36443e+002  4.19542e+001  9.67167e+002
           104  9.73554e+002  1.04000e+002 -1.36451e+002  4.19542e+001  9.67333e+002
           105  9.73719e+002  1.05000e+002 -1.36463e+002  4.19542e+001  9.67500e+002
           106  9.73884e+002  1.06000e+002 -1.36474e+002  4.19543e+001  9.67667e+002
           107  9.74039e+002  1.07000e+002 -1.36484e+002  4.19543e+001  9.67833e+002
           108  9.74207e+002  1.08000e+002 -1.36495e+002  4.19543e+001  9.68000e+002
           109  9.74368e+002  1.09000e+002 -1.36505e+002  4.19543e+001  9.68167e+002
           110  9.74534e+002  1.10000e+002 -1.36514e+002  4.19543e+001  9.68333e+002
           111  9.74694e+002  1.11000e+002 -1.36523e+002  4.19543e+001  9.68500e+002
           112  9.74857e+002  1.12000e+002 -1.36532e+002  4.19543e+001  9.68667e+002
           113  9.75017e+002  1.13000e+002 -1.36542e+002  4.19542e+001  9.68833e+002
           114  9.75180e+002  1.14000e+002 -1.36551e+002  4.19542e+001  9.69000e+002
           115  9.75340e+002  1.15000e+002 -1.36559e+002  4.19541e+001  9.69167e+002
           116  9.75503e+002  1.16000e+002 -1.36567e+002  4.19541e+001  9.69333e+002
           117  9.75665e+002  1.17000e+002 -1.36571e+002  4.19540e+001  9.69500e+002
           118  9.75825e+002  1.18000e+002 -1.36578e+002  4.19540e+001  9.69667e+002
           119  9.75987e+002  1.19000e+002 -1.36584e+002  4.19540e+001  9.69833e+002
           120  9.76148e+002  1.20000e+002 -1.36590e+002  4.19540e+001  9.70000e+002
           121  9.76317e+002  1.21000e+002 -1.36593e+002  4.19540e+001  9.70167e+002
           122  9.76480e+002  1.22000e+002 -1.36597e+002  4.19540e+001  9.70333e+002
           123  9.76633e+002  1.23000e+002 -1.36600e+002  4.19539e+001  9.70500e+002
           124  9.76795e+002  1.24000e+002 -1.36604e+002  4.19540e+001  9.70667e+002
           125  9.76957e+002  1.25000e+002 -1.36606e+002  4.19540e+001  9.70833e+002
           126  9.77123e+002  1.26000e+002 -1.36610e+002  4.19540e+001  9.71000e+002
           127  9.77287e+002  1.27000e+002 -1.36615e+002  4.19540e+001  9.71167e+002
           128  9.77446e+002  1.28000e+002 -1.36620e+002  4.19541e+001  9.71333e+002
           129  9.77608e+002  1.29000e+002 -1.36622e+002  4.19542e+001  9.71500e+002
           130  9.77772e+002  1.30000e+002 -1.36627e+002  4.19542e+001  9.71667e+002
           131  9.77936e+002  1.31000e+002 -1.36634e+002  4.19543e+001  9.71833e+002
           132  9.78098e+002  1.32000e+002 -1.36642e+002  4.19544e+001  9.72000e+002
           133  9.78261e+002  1.33000e+002 -1.36653e+002  4.19544e+001  9.72167e+002
           134  9.78419e+002  1.34000e+002 -1.36661e+002  4.19545e+001  9.72333e+002
           135  9.78581e+002  1.35000e+002 -1.36670e+002  4.19545e+001  9.72500e+002
           136  9.78752e+002  1.36000e+002 -1.36679e+002  4.19545e+001  9.72667e+002
           137  9.78912e+002  1.37000e+002 -1.36692e+002  4.19545e+001  9.72833e+002
           138  9.79074e+002  1.38000e+002 -1.36703e+002  4.19544e+001  9.73000e+002
           139  9.79235e+002  1.39000e+002 -1.36714e+002  4.19544e+001  9.73167e+002
           140  9.79398e+002  1.40000e+002 -1.36726e+002  4.19544e+001  9.73333e+002
           141  9.79557e+002  1.41000e+002 -1.36738e+002  4.19543e+001  9.73500e+002
           142  9.79721e+002  1.42000e+002 -1.36747e+002  4.19543e+001  9.73667e+002
           143  9.79884e+002  1.43000e+002 -1.36756e+002  4.19543e+001  9.73833e+002
           144  9.80042e+002  1.44000e+002 -1.36765e+002  4.19542e+001  9.74000e+002
           145  9.80206e+002  1.45000e+002 -1.36772e+002  4.19542e+001  9.74167e+002
           146  9.80372e+002  1.46000e+002 -1.36777e+002  4.19541e+001  9.74333e+002
           147  9.80534e+002  1.47000e+002 -1.36783e+002  4.19541e+001  9.74500e+002
           148  9.80697e+002  1.48000e+002 -1.36789e+002  4.19540e+001  9.74667e+002
           149  9.80854e+002  1.49000e+002 -1.36795e+002  4.19540e+001  9.74833e+002
           150  9.81022e+002  1.50000e+002 -1.36793e+002  4.19540e+001  9.75000e+002
           151  9.81181e+002  1.51000e+002 -1.36795e+002  4.19540e+001  9.75167e+002
           152  9.81343e+002  1.52000e+002 -1.36798e+002  4.19541e+001  9.75333e+002
           153  9.81506e+002  1.53000e+002 -1.36801e+002  4.19541e+001  9.75500e+002
           154  9.81670e+002  1.54000e+002 -1.36803e+002  4.19542e+001  9.75667e+002
           155  9.81830e+002  1.55000e+002 -1.36806e+002  4.19543e+001  9.75833e+002
           156  9.81990e+002  1.56000e+002 -1.36811e+002  4.19543e+001  9.76000e+002
           157  9.82151e+002  1.57000e+002 -1.36815e+002  4.19544e+001  9.76167e+002
           158  9.82315e+002  1.58000e+002 -1.36823e+002  4.19545e+001  9.76333e+002
           159  9.82478e+002  1.59000e+002 -1.36828e+002  4.19546e+001  9.76500e+002
           160  9.82640e+002  1.60000e+002 -1.36832e+002  4.19546e+001  9.76667e+002
           161  9.82805e+002  1.61000e+002 -1.36836e+002  4.19546e+001  9.76833e+002
           162  9.82967e+002  1.62000e+002 -1.36841e+002  4.19545e+001  9.77000e+002
           163  9.83128e+002  1.63000e+002 -1.36846e+002  4.19544e+001  9.77167e+002
           164  9.83292e+002  1.64000e+002 -1.36853e+002  4.19544e+001  9.77333e+002
           165  9.83455e+002  1.65000e+002 -1.36859e+002  4.19543e+001  9.77500e+002
           166  9.83617e+002  1.66000e+002 -1.36866e+002  4.19543e+001  9.77667e+002
           167  9.83776e+002  1.67000e+002 -1.36875e+002  4.19543e+001  9.77833e+002
           168  9.83943e+002  1.68000e+002 -1.36883e+002  4.19543e+001  9.78000e+002
           169  9.84102e+002  1.69000e+002 -1.36890e+002  4.19543e+001  9.78167e+002
           170  9.84265e+002  1.70000e+002 -1.36897e+002  4.19544e+001  9.78333e+002
           171  9.84431e+002  1.71000e+002 -1.36903e+002  4.19544e+001  9.78500e+002
           172  9.84596e+002  1.72000e+002 -1.36910e+002  4.19544e+001  9.78667e+002
           173  9.84754e+002  1.73000e+002 -1.36916e+002  4.19545e+001  9.78833e+002
           174  9.84918e+002  1.74000e+002 -1.36927e+002  4.19544e+001  9.79000e+002
           175  9.85079e+002  1.75000e+002 -1.36934e+002  4.19544e+001  9.79167e+002
           176  9.85243e+002  1.76000e+002 -1.36940e+002  4.19544e+001  9.79333e+002
           177  9.85409e+002  1.77000e+002 -1.36947e+002  4.19544e+001  9.79500e+002
           178  9.85572e+002  1.78000e+002 -1.36950e+002  4.19543e+001  9.79667e+002
           179  9.85729e+002  1.79000e+002 -1.36953e+002  4.19543e+001  9.79833e+002
           180  9.85890e+002  1.80000e+002 -1.36958e+002  4.19542e+001  9.80000e+002
           181  9.86053e+002  1.81000e+002 -1.36961e+002  4.19542e+001  9.80167e+002
           182  9.86215e+002  1.82000e+002 -1.36962e+002  4.19543e+001  9.80333e+002
           183  9.86374e+002  1.83000e+002 -1.36967e+002  4.19543e+001  9.80500e+002
           184  9.86538e+002  1.84000e+002 -1.36972e+002  4.19543e+001  9.80667e+002
           185  9.86706e+002  1.85000e+002 -1.36978e+002  4.19543e+001  9.80833e+002
           186  9.86867e+002  1.86000e+002 -1.36980e+002  4.19544e+001  9.81000e+002
           187  9.87031e+002  1.87000e+002 -1.36983e+002  4.19544e+001  9.81167e+002
           188  9.87196e+002  1.88000e+002 -1.36987e+002  4.19544e+001  9.81333e+002
           189  9.87355e+002  1.89000e+002 -1.36993e+002  4.19545e+001  9.81500e+002
           190  9.87518e+002  1.90000e+002 -1.36999e+002  4.19545e+001  9.81667e+002
           191  9.87684e+002  1.91000e+002 -1.37005e+002  4.19545e+001  9.81833e+002
           192  9.87839e+002  1.92000e+002 -1.37012e+002  4.19545e+001  9.82000e+002
           193  9.88001e+002  1.93000e+002 -1.37021e+002  4.19545e+001  9.82167e+002
           194  9.88165e+002  1.94000e+002 -1.37031e+002  4.19545e+001  9.82333e+002
           195  9.88331e+002  1.95000e+002 -1.37041e+002  4.19545e+001  9.82500e+002
           196  9.88492e+002  1.96000e+002 -1.37050e+002  4.19545e+001  9.82667e+002
           197  9.88658e+002  1.97000e+002 -1.37059e+002  4.19545e+001  9.82833e+002
           198  9.88820e+002  1.98000e+002 -1.37073e+002  4.19545e+001  9.83000e+002
           199  9.88982e+002  1.99000e+002 -1.37083e+002  4.19545e+001  9.83167e+002
           200  9.89142e+002  2.00000e+002 -1.37092e+002  4.19545e+001  9.83333e+002
           201  9.89299e+002  2.01000e+002 -1.37101e+002  4.19545e+001  9.83500e+002
           202  9.89465e+002  2.02000e+002 -1.37109e+002  4.19546e+001  9.83667e+002
           203  9.89627e+002  2.03000e+002 -1.37115e+002  4.19546e+001  9.83833e+002
           204  9.89790e+002  2.04000e+002 -1.37120e+002  4.19546e+001  9.84000e+002
           205  9.89956e+002  2.05000e+002 -1.37125e+002  4.19546e+001  9.84167e+002
           206  9.90114e+002  2.06000e+002 -1.37127e+002  4.19545e+001  9.84333e+002
           207  9.90279e+002  2.07000e+002 -1.37131e+002  4.19545e+001  9.84500e+002
           208  9.90444e+002  2.08000e+002 -1.37136e+002  4.19545e+001  9.84667e+002
           209  9.90607e+002  2.09000e+002 -1.37140e+002  4.19545e+001  9.84833e+002
           210  9.90768e+002  2.10000e+002 -1.37138e+002  4.19545e+001  9.85000e+002
           211  9.90925e+002  2.11000e+002 -1.37140e+002  4.19546e+001  9.85167e+002
           212  9.91090e+002  2.12000e+002 -1.37143e+002  4.19546e+001  9.85333e+002
           213  9.91260e+002  2.13000e+002 -1.37148e+002  4.19547e+001  9.85500e+002
           214  9.91420e+002  2.14000e+002 -1.37149e+002  4.19548e+001  9.85667e+002
           215  9.91582e+002  2.15000e+002 -1.37151e+002  4.19549e+001  9.85833e+002
           216  9.91739e+002  2.16000e+002 -1.37155e+002  4.19550e+001  9.86000e+002
           217  9.91908e+002  2.17000e+002 -1.37158e+002  4.19550e+001  9.86167e+002
           218  9.92068e+002  2.18000e+002 -1.37160e+002  4.19550e+001  9.86333e+002
           219  9.92230e+002  2.19000e+002 -1.37164e+002  4.19550e+001  9.86500e+002
           220  9.92389e+002  2.20000e+002 -1.37169e+002  4.19550e+001  9.86667e+002
           221  9.92556e+002  2.21000e+002 -1.37174e+002  4.19550e+001  9.86833e+002
           222  9.92713e+002  2.22000e+002 -1.37182e+002  4.19550e+001  9.87000e+002
           223  9.92881e+002  2.23000e+002 -1.37187e+002  4.19549e+001  9.87167e+002
           224  9.93044e+002  2.24000e+002 -1.37193e+002  4.19549e+001  9.87333e+002
           225  9.93207e+002  2.25000e+002 -1.37201e+002  4.19549e+001  9.87500e+002
           226  9.93364e+002  2.26000e+002 -1.37209e+002  4.19548e+001  9.87667e+002
           227  9.93530e+002  2.27000e+002 -1.37217e+002  4.19548e+001  9.87833e+002
           228  9.93694e+002  2.28000e+002 -1.37225e+002  4.19547e+001  9.88000e+002
           229  9.93854e+002  2.29000e+002 -1.37233e+002  4.19547e+001  9.88167e+002
